 asas_sn_id jd flux flux_err mag mag_err limit fwhm image_id camera quality phot_filter
0 661428054591 2458642.8528817 0.7722756299114597 0.02184207483241335 16.68063479636061 0.030742114302024174 18.80440588470884 1.47 bi223691 bi G g
1 661428054591 2458259.8066756 0.8131875210839696 0.02586202504719549 16.62458885860049 0.03456877541966997 18.620984291482085 1.40 bi085445 bi G g
2 661428054591 2459349.8379287 0.6978996217429769 0.050340155761653384 16.7905832149292 0.07840319568283736 17.897854223939635 1.39 bi386694 bi B g
3 661428054591 2458734.4759631 0.7080700246001559 0.053875475210957216 16.774875098843005 0.0827041070908397 17.824162826694867 1.46 bi258006 bi G g
4 661428054591 2458616.8129163 0.8556190531079576 0.03255845255144805 16.56936450485843 0.04136142388365586 18.370981222890794 1.48 bi214571 bi G g
5 661428054591 2458825.5588706 0.8386611808443524 0.09087619764527712 16.591099269106234 0.1177811468535355 17.25651524290766 1.47 bq211296 bq G g
6 661428054591 2458431.6390525 0.7300753783874074 0.023242027309646054 16.741646366749336 0.03460337646019497 18.73695559356295 1.54 bE013652 bE G g
7 661428054591 2458402.3630399 0.9292720529028583 0.024969126062304243 16.479708431544886 0.029206037490062356 18.659132256460982 1.46 bm081921 bm G g
8 661428054591 2458393.5780394 0.8363967914881416 0.023456611686228125 16.594034726915957 0.030483518480366442 18.726977415549474 1.70 bi136083 bi G g
9 661428054591 2458100.5451307 0.7140509343347581 0.0337352865086705 16.76574264287134 0.051353184934208915 18.33242960418187 1.50 bq024541 bq G g
10 661428054591 2458801.635291 0.6751298075339628 0.08464538150841885 16.826597415109234 0.13627875475049922 17.3336324445539 1.50 bE138022 bE G g
11 661428054591 2458718.6036369 0.8556626420629297 0.05385876439713368 16.56930919414403 0.06841730880424514 17.82449964692566 1.50 bm160507 bm G g
12 661428054591 2458705.6517416 0.583365156916022 0.051349289442849104 16.985214406954046 0.09567668617995616 17.876304515619886 1.50 bi246571 bi G g
13 661428054591 2458362.3287305 0.8774308501400013 0.01626524249741022 16.54203337236057 0.02014929314077294 19.12448925510853 1.47 bm074380 bm G g
14 661428054591 2458754.5022936 0.8982741516250825 0.031025674307254694 16.516543365337533 0.03754261320846739 18.42333753853441 1.48 bm169975 bm G g
15 661428054591 2458337.9083008 0.7841255607740016 0.03571612398860993 16.664101594445082 0.04950976711222413 18.270479806568257 1.51 bq091196 bq G g
16 661428054591 2459164.6236323 0.766918615222189 0.03511757920187838 16.68819242373715 0.049772271768515224 18.288829185007202 1.36 bi324910 bi G g
17 661428054591 2458428.6491201 0.7352517656005438 0.025311643961846146 16.73397543209321 0.037419368123238136 18.644339728952296 1.51 bE012572 bE G g
18 661428054591 2458785.6898698 0.7706962728671584 0.05622935610275919 16.682857475489133 0.0793034396049569 17.77773283565017 1.49 bq197769 bq G g
19 661428054591 2458043.5148569 0.746690707425439 0.02038747706224404 16.717213755877243 0.029678019204257892 18.879231897872113 1.50 bi015133 bi G g
20 661428054591 2458264.7861195 0.850346380100374 0.057827709089880434 16.57607595410298 0.07391835492385967 17.747300642499333 1.50 bi087700 bi G g
21 661428054591 2458286.7904542 0.7700973167784516 0.023656120072605407 16.683701596788307 0.03338951250931289 18.717781821705024 1.49 bi094403 bi G g
22 661428054591 2458586.6426359 0.9838920825689115 0.04416223374121006 16.417696957797034 0.0487883059839686 18.0400130313339 1.51 bm127126 bm G g
23 661428054591 2458707.7077495 0.8415880337562245 0.06251197201222808 16.58731674284893 0.08073759718540288 17.662732612844582 1.51 bE106606 bE G g
24 661428054591 2459186.5611606 0.817168734478159 0.03431952893501274 16.619286267712113 0.045650101655870357 18.313787316059415 1.40 bi331915 bi G g
25 661428054591 2458459.5551289 0.7805476243770609 0.025283142934507175 16.669067106594685 0.035208200299959594 18.645562961717022 1.58 bE022647 bE G g
26 661428054591 2458833.5261906 0.9298009716367106 0.09346255438639714 16.479090633075828 0.10925965462250066 17.226046495509028 2.04 bE147552 bE B g
27 661428054591 2458230.8809224 0.7545339975502472 0.025281225776059502 16.705868590148246 0.036419291011492584 18.64564529354044 1.41 bi073844 bi G g
28 661428054591 2458016.5614738 0.7439206460951906 0.021942368185084184 16.721249092560647 0.032060409032022764 18.79943186622022 1.68 bi003635 bi G g
29 661428054591 2458042.5179675 0.7190642345662543 0.021799850985328658 16.758146402334702 0.03295323152282426 18.80650679904428 1.38 bi014911 bi B g
30 661428054591 2459191.5531855 0.6850341685919384 0.028769510766223316 16.81078503712472 0.04564912056703292 18.505309419814747 1.87 bE186551 bE G g
31 661428054591 2459099.2805195 0.8810130698922349 0.02986863309073663 16.537609744157976 0.036850651418123215 18.464602241468008 1.53 bm241519 bm G g
32 661428054591 2458242.8932059 0.8248780564715008 0.049397196633969374 16.609091245804056 0.06509156670574893 17.91838485456547 1.38 bi078623 bi G g
33 661428054591 2458442.6041387 0.6531213554308616 0.061652196165039586 16.86258091144812 0.10260460195321833 17.677769232496015 1.58 bE017286 bE G g
34 661428054591 2458661.6837176 0.8534115671638509 0.03638508487799025 16.572169309775887 0.04634224191921469 18.250332130524026 1.49 bm147428 bm G g
35 661428054591 2458648.7406403 0.7652613373686568 0.06049630400104328 16.69054119127664 0.08592731523736884 17.698318505430187 1.56 bi226368 bi G g
36 661428054591 2458699.7092797 0.795827860692143 0.027571041301495604 16.648017774659863 0.03765704197354376 18.551507689381094 1.41 bi243988 bi G g
37 661428054591 2459324.847266 0.8223502403999289 0.03150097425702814 16.612423562991076 0.04163699081933917 18.406830646975468 1.53 bE229112 bE G g
38 661428054591 2458212.9040327 0.800485191674997 0.07247569781757893 16.6416823666949 0.09841272921685267 17.5021595975331 1.39 bi066561 bi G g
39 661428054591 2458394.7556483 0.7435151900007446 0.0420184626610776 16.72184100834135 0.06142744981829449 18.094040214614836 1.55 bq102148 bq G g
40 661428054591 2458716.7069442 0.8897587672902127 0.05114734611898876 16.526884932174426 0.06248316226543011 17.880582850426325 1.40 bi251104 bi G g
41 661428054591 2458723.7194936 0.8217135603027931 0.024730455741635463 16.613264487371953 0.032713260986037815 18.66956031202158 1.48 bE112935 bE G g
42 661428054591 2458802.2712825 0.8882795396664616 0.027814369372701386 16.52869147520607 0.034035468383152266 18.541967567059675 1.81 bm180804 bm G g
43 661428054591 2458774.5340661 0.8806390048189392 0.019733552526516786 16.538070829527722 0.02435676082754155 18.91462742140093 1.45 bE129865 bE G g
44 661428054591 2459078.7414587 0.8348816450278131 0.03623622222613854 16.596003339425074 0.04717698407488354 18.25478332545494 1.54 bq270788 bq B g
45 661428054591 2459308.6421975 0.9263411146203602 0.07707127904814966 16.48313827189014 0.09043442861164072 17.435409195327097 1.52 bm291964 bm G g
46 661428054591 2459029.5456876 0.786770133012761 0.02945063699125369 16.660445959574336 0.040687312092585075 18.47990387986573 1.61 bm225535 bm G g
47 661428054591 2459049.4461994 0.827191556207746 0.025141712078907513 16.606050390811028 0.03303702474568379 18.651653490009974 1.62 bm230110 bm G g
48 661428054591 2458697.656407 0.8302899732852801 0.026550527081471195 16.601991138919267 0.0347580598289373 18.59245774363271 1.48 bE102631 bE G g
49 661428054591 2458743.6374923 0.8594273002947509 0.06999550806143556 16.564542759213165 0.08852648031279435 17.539965185932505 1.44 bi260845 bi G g
50 661428054591 2458769.715997 0.3906519875713194 0.1575295297285727 16.659235670158655 99.999 16.659235670158655 1.58 bq192433 bq G g
51 661428054591 2458461.5460261 0.7909498952862938 0.02539093038644078 16.65469319005477 0.03489328153533206 18.640944074471125 1.44 bE023280 bE G g
52 661428054591 2458336.8068314 0.8076854486236347 0.032176556191602056 16.631959975681198 0.04330215142437818 18.383791710528943 1.36 bi114428 bi B g
53 661428054591 2458353.2701371 1.041415528150308 0.07311562641554217 16.356005499813314 0.07631296521434713 17.49261509856936 1.63 bm071926 bm G g
54 661428054591 2458458.5524289 0.69263379871391 0.026451336897145954 16.798806421874954 0.04151032364065644 18.59652154410768 1.60 bE022328 bE G g
55 661428054591 2458636.760055 0.7142919926547591 0.033990560985032434 16.765376168206156 0.05172431207430599 18.32424478069257 1.52 bi220854 bi G g
56 661428054591 2458323.6609395 0.6246246853280115 0.056147921815289305 16.911017763125177 0.09770723321185809 17.779306395204717 1.43 bi109115 bi G g
57 661428054591 2458283.9332999 0.8196518455757282 0.0328193179455876 16.6159920695329 0.043522346557921164 18.362316733295568 1.64 bq079344 bq G g
58 661428054591 2458769.5531546 0.9792835722243474 0.25367203693921764 16.141959120884085 99.999 16.141959120884085 1.50 bi270222 bi B g
59 661428054591 2458032.7196531 0.6425379153059394 0.09906100757153008 16.88031872253729 0.16757767232873003 17.162883759005624 2.15 bi008711 bi G g
60 661428054591 2458773.5560236 0.8575549330740025 0.039222576077523816 16.566910748405476 0.04971487332484936 18.168800326313114 1.35 bi271600 bi G g
61 661428054591 2458072.5517504 0.7362032308310329 0.025887305533946452 16.73257132473717 0.03822093465769462 18.619923487733914 1.46 bi020312 bi G g
62 661428054591 2459180.5813777 1.023984808668629 0.06636390408499611 16.374331838007713 0.07044506690196425 17.597810794014613 1.54 bE183340 bE G g
63 661428054591 2459157.6544928 0.5993422513026735 0.09888538023605778 16.9558783851543 0.1793367791418333 17.16481039185622 1.47 bq288307 bq G g
64 661428054591 2458063.6288485 0.6661677992460024 0.06177177978560892 16.84110653168463 0.10079027982648908 17.67566532511537 1.74 bi018306 bi B g
65 661428054591 2458691.7354951 0.7538406593736585 0.030514552570454687 16.70686672732859 0.043998677322559736 18.441373095553942 1.44 bi240658 bi G g
66 661428054591 2458753.4146089 0.921684998313525 0.02979809702301264 16.488609325258345 0.035141329145905516 18.46716928672083 1.48 bm169522 bm G g
67 661428054591 2459318.635823 0.8696015673394081 0.04433028735137739 16.551764837691962 0.05541054289330937 18.035889245368836 1.48 bm295763 bm G g
68 661428054591 2458704.618721 0.8434835567873626 0.04534234410094303 16.584874070547674 0.05843048893469339 18.01138069030575 1.40 bi246104 bi G g
69 661428054591 2458457.3049113 0.844491366765897 0.025727604382366234 16.583577586937682 0.03311435554306783 18.626642239188374 1.51 bm093807 bm G g
70 661428054591 2458463.5395572 0.7117600666944948 0.029703052600961045 16.76923157664429 0.045360688595687926 18.470637900638415 1.72 bE023915 bE G g
71 661428054591 2458079.5157904 0.8183791769024877 0.04269908009224324 16.617679195984447 0.05671215115002296 18.07659431469731 1.40 bi022449 bi G g
72 661428054591 2458753.6108518 0.7864341245982125 0.027327963014512194 16.66090974741951 0.037770878316916424 18.561122458347246 1.42 bi264743 bi G g
73 661428054591 2458833.5711836 0.6558680223290373 0.04960032892917441 16.85802448017196 0.08220160028312037 17.91392922003263 1.55 bi290755 bi G g
74 661428054591 2458647.8005016 0.7611730379979077 0.032281079776740766 16.69635713112743 0.046097442290390186 18.3802704786872 1.55 bE086137 bE G g
75 661428054591 2459195.5246279 0.5820791885615321 0.10883735549602261 16.987610442376425 0.20323948302909686 17.06069565931046 1.49 bi334719 bi B g
76 661428054591 2458595.8726043 0.711855833658257 0.06425691310290617 16.76908550120371 0.09811603341802339 17.632840965833225 1.44 bi206271 bi G g
77 661428054591 2458373.7997331 0.7600133337698637 0.025649596542601995 16.69801259312013 0.036683561989191246 18.629939265863502 1.54 bq098141 bq G g
78 661428054591 2458719.4406353 0.8599767408111951 0.031843484880005234 16.563848858923173 0.04024816244747964 18.39508913672579 1.50 bm160798 bm G g
79 661428054591 2459018.464908 0.898565176199571 0.025488474819983814 16.516191663418653 0.030832336561206524 18.636780989136433 2.34 bm222937 bm G g
80 661428054591 2458578.8962193 0.8863282848653202 0.03053470904184607 16.531079100017358 0.03744651016918034 18.440656146291428 1.45 bE063433 bE G g
81 661428054591 2458265.5245013 0.9007274263966051 0.06175361922833067 16.513582155160375 0.07452143367029374 17.675984572409206 1.53 bm052441 bm G g
82 661428054591 2458278.7458538 0.4306267197818077 0.11035809958965502 17.045630078572383 99.999 17.045630078572383 1.64 bi091909 bi B g
83 661428054591 2458790.6122587 0.7493758969813157 0.1669325343485407 16.596288144353572 99.999 16.596288144353572 1.96 bE134445 bE B g
84 661428054591 2458743.3673789 0.7161281538958839 0.12897865763782054 16.76258875244295 0.1957669061353089 16.876345979821046 1.50 bm166828 bm G g
85 661428054591 2458987.655166 1.087048960399859 0.035615297163209395 16.309442859691522 0.035612268568830346 18.273549180650186 1.50 bm214494 bm G g
86 661428054591 2458702.8127156 0.7958716555939277 0.031099563588391523 16.647958027565668 0.04247402609207945 18.42075487460525 1.42 bi245374 bi G g
87 661428054591 2459144.4921869 1.0787694701224086 0.07004185288176112 16.31774400443602 0.0705734180407276 17.53924654555213 1.59 bi320054 bi G g
88 661428054591 2458413.2927569 1.0962611083222393 0.08275453557628719 16.300280604616976 0.08205215113925013 17.358161097112117 1.59 bm084228 bm G g
89 661428054591 2459179.299175 1.1196547512238353 0.07923105078503208 16.277355303895074 0.07691719905703152 17.405402072183747 1.55 bm258961 bm G g
90 661428054591 2458430.3506599 0.9183595727684749 0.024603892904962017 16.492533728936497 0.02912079608709189 18.675131041510443 1.52 bm088486 bm G g
91 661428054591 2458690.603274 0.8132086413105248 0.02951675784066463 16.624560660065402 0.03945289167586935 18.477468980701964 1.37 bi240205 bi G g
92 661428054591 2458727.8224427 0.8327134590109775 0.032228815691065 16.598826661918576 0.04206887858512409 18.382029744363596 1.49 bE114625 bE G g
93 661428054591 2458430.6431554 0.7515842694845882 0.02687123488274626 16.710121417724892 0.03886172873604028 18.579421548593423 1.48 bE013293 bE G g
94 661428054591 2458605.5767871 0.8912697110300885 0.1187320958991687 16.525042753079298 0.14480086597826775 16.966220275982582 1.53 bm131761 bm B g
95 661428054591 2458646.7326246 0.7360543100183459 0.029825185747582153 16.73279097206658 0.04404386975141462 18.466182718733865 1.63 bE085641 bE G g
96 661428054591 2458290.5175491 0.8576946381810965 0.02293387909442756 16.566733884471923 0.029064107831348402 18.75144681491149 1.47 bm057399 bm G g
97 661428054591 2458830.5324686 0.6242192979208534 0.06658617653520395 16.911722645090045 0.11594687809826376 17.594180416804907 2.01 bE146614 bE G g
98 661428054591 2458404.7030348 0.7533216864082729 0.02809650168067666 16.707614447388945 0.04054001934482282 18.531009989202513 1.46 bi139326 bi G g
99 661428054591 2458225.9150231 0.7968365120238732 0.040302087334649496 16.646642557842043 0.0549756644017648 18.139321761942732 1.42 bi071685 bi G g
100 661428054591 2458349.5070231 0.8458247710005002 0.020923046332557763 16.581864622692667 0.026887887947431847 18.85107831952216 1.69 bm071177 bm G g
101 661428054591 2458319.8088806 0.8166894742971695 0.022916161134998617 16.61992322646671 0.030499806331344886 18.752285943116732 2.01 bi107422 bi G g
102 661428054591 2458681.8078133 0.6704848944000688 0.10238655224865863 16.834093127486543 0.16598394927993518 17.127033314269532 1.52 bE097102 bE G g
103 661428054591 2458086.5725549 0.7341319955570412 0.054661090218362 16.735630241605502 0.08093126148675418 17.808444887768065 1.48 bi025017 bi G g
104 661428054591 2458780.5172825 0.8677044015626201 0.07596253833318302 16.554136121076624 0.09515680259362294 17.45114194015559 1.49 bi273730 bi B g
105 661428054591 2458294.9080464 0.713321796523868 0.05355786526432491 16.766851885567778 0.08161123243839599 17.830582465536256 1.49 bq082419 bq G g
106 661428054591 2458805.6270256 0.710965119453087 0.02828204690537042 16.770444886282856 0.0432389079165688 18.523863515926926 1.50 bq204567 bq G g
107 661428054591 2458283.6022181 0.9443455605382697 0.029532247925398835 16.46223826478544 0.03399207962160828 18.47689934719236 1.70 bm056598 bm G g
108 661428054591 2458344.6976689 0.719619781005561 0.023353627059634445 16.75730789032507 0.035274707434059444 18.73175476003749 1.48 bi117642 bi G g
109 661428054591 2458316.7964246 0.6793948733558738 0.07048088164865272 16.81975995877049 0.11276160149327175 17.532462291322172 1.70 bi106806 bi B g
110 661428054591 2458810.610027 0.7636221478401953 0.025037175825220363 16.69286933219341 0.03563846547160096 18.65617726342444 1.44 bE140833 bE G g
111 661428054591 2458444.2800054 0.6484856697829084 0.06433006095646457 16.870314663533335 0.107826560491172 17.63160570414274 1.47 bm090749 bm G g
112 661428054591 2458729.2561294 0.7690216211126928 0.02578602854199348 16.685219246777564 0.03644668904486353 18.6241794638438 1.45 bm163320 bm G g
113 661428054591 2459340.8484758 0.9705425727927586 0.030406463105057673 16.432529146172058 0.034053635874992175 18.445225847113615 1.51 bE234283 bE G g
114 661428054591 2458799.6414839 0.6892397046136225 0.08317525774365842 16.804139903193658 0.13117045963346516 17.352655223103252 1.51 bE137359 bE G g
115 661428054591 2458325.8482609 1.0249406021440188 0.07887797239102773 16.373318878091947 0.08365062944392887 17.41025126579749 1.41 bi110164 bi G g
116 661428054591 2458811.6181408 0.6377823974571344 0.09520994370856659 16.888384300492806 0.16226391581369645 17.205934840474676 1.46 bq206598 bq B g
117 661428054591 2458644.8577032 0.7454109737618281 0.03308563924297324 16.71907616717165 0.048245401016256795 18.35354178643429 1.43 bi224615 bi B g
118 661428054591 2459155.3619301 1.2258512170039966 0.06469354034908979 16.178971215903 0.05736345864932764 17.62548831513364 1.54 bm254523 bm G g
119 661428054591 2458585.6244327 0.8779342824132492 0.03299907847156989 16.541410602031412 0.04085563609323854 18.35638608146718 1.53 bm126693 bm G g
120 661428054591 2458608.8667578 0.8580898677135529 0.026863947369841167 16.566233687601404 0.034029003128904355 18.579716041561362 1.48 bE074611 bE G g
121 661428054591 2458777.7133468 0.8801258423793921 0.044887242702297755 16.53870368979433 0.05543580116480415 18.022333289626356 1.52 bq194731 bq G g
122 661428054591 2458450.5885733 0.8276453590894796 0.03043682041211404 16.6054549119136 0.03997303927898093 18.444142406898695 1.66 bq116383 bq G g
123 661428054591 2458376.6837343 0.7886749844766295 0.029793577364561764 16.657820457506556 0.04106168429297934 18.46733397941903 1.54 bq098901 bq G g
124 661428054591 2458742.5956296 0.6402581473630329 0.0689707546677721 16.884177838217497 0.11709060150842049 17.55597816644025 1.40 bi260404 bi G g
125 661428054591 2458360.781932 1.0940813424465057 0.10400371146100874 16.302441592283206 0.10332642379663427 17.11001851708285 1.45 bq095725 bq G g
126 661428054591 2459315.6342479 0.8800865481378527 0.04330967904428263 16.538752164831674 0.05348989618261706 18.061178198170076 1.50 bm294538 bm G g
127 661428054591 2458681.7554062 0.9203561294899133 0.11405203733297455 16.49017584972046 0.13469743051031652 17.00988299252744 1.50 bi237337 bi G g
128 661428054591 2459343.6259749 0.8782926343398239 0.02531519445844002 16.540967520716105 0.03132955308953342 18.644187442030045 1.99 bm302083 bm G g
129 661428054591 2458429.6461174 0.772915565716257 0.03049636338363985 16.679735488218444 0.04288724737799201 18.442020476729468 1.46 bE012933 bE G g
130 661428054591 2459095.2746695 0.6812057218092245 0.12027919169941767 16.81686990434158 0.19192183456704304 16.952164359214144 1.69 bm240838 bm B g
131 661428054591 2458351.8712531 0.6794880891627795 0.04713195229739934 16.819611001458693 0.07539555696271072 17.9693520378002 1.51 bq093493 bq G g
132 661428054591 2459041.8616133 1.2184875969533686 0.08472691974269198 16.18551284018765 0.07558097284818843 17.33258706677716 1.61 bq261777 bq B g
133 661428054591 2459349.8337291 1.0321348721081494 0.0734156079888542 16.36572449343135 0.07731506420080234 17.48816961210027 1.47 bE236913 bE B g
134 661428054591 2458717.7080704 0.7533453697855228 0.03409767185554342 16.707580313902017 0.04919747075641474 18.320828794078835 1.39 bi251546 bi G g
135 661428054591 2458304.4641354 1.0133928298340626 0.036188330628781656 16.385621054393127 0.03881529534232747 18.256219237633434 1.55 bm059919 bm G g
136 661428054591 2458751.7246414 0.8411848780702345 0.02365430837076485 16.587836980285285 0.030565462386598692 18.717864975899406 1.51 bE122395 bE G g
137 661428054591 2458752.7790395 0.7113547845361885 0.07255866631830549 16.769849980034476 0.11087029605740045 17.50091738275929 1.47 bq187512 bq B g
138 661428054591 2458787.4181726 0.8152073835232132 0.02584294015601881 16.621895360975994 0.03445767655108442 18.621785806701137 1.64 bm177765 bm G g
139 661428054591 2458718.7035987 0.795499017168037 0.020388488695481898 16.64846650374233 0.027858489171806642 18.879178024625357 1.48 bE111089 bE G g
140 661428054591 2458091.5697789 0.592645025733987 0.10904585837945481 16.96807901334478 0.1999984844003267 17.058617672719254 1.63 bq022611 bq G g
141 661428054591 2458604.8510843 0.7449784194034884 0.03995938780922451 16.7197063916522 0.05830251729804175 18.148593546260543 1.49 bE073189 bE G g
142 661428054591 2458802.6448311 1.1259632599075275 0.1274037500125526 16.27125507290276 0.1229901026979682 16.889685083323954 1.57 bq203243 bq G g
143 661428054591 2458320.8427966 0.7742967223883731 0.022645903574118286 16.6777970700541 0.03179028383929651 18.765166477032885 1.42 bi107903 bi G g
144 661428054591 2459159.6504017 0.7477926300080269 0.03317880606980589 16.715612670833874 0.04822716645483153 18.35048872643654 1.50 bq289069 bq G g
145 661428054591 2458305.6047462 0.9354210222756066 0.02960960942242801 16.472547807678307 0.0344062804891442 18.4740589147186 1.53 bm060471 bm G g
146 661428054591 2458024.694272 0.7440225469642738 0.0224341738280676 16.721100380615795 0.03277450616482231 18.77536540988935 1.49 bi006682 bi G g
147 661428054591 2459089.7314677 0.908870461377417 0.14631652507083373 16.503810649975186 0.1749861040955395 16.739407165544698 1.48 bq274395 bq B g
148 661428054591 2459000.9503482 0.8680694647086863 0.12784759979139718 16.55367942301445 0.16008486420909687 16.885909163937484 1.53 bq252690 bq B g
149 661428054591 2458013.5768199 0.6926874539604285 0.03118661715349446 16.79872231799849 0.04893765104616544 18.417719939157198 2.48 bi002181 bi G g
150 661428054591 2459346.5411184 0.9038930893073662 0.03694532784761973 16.5097729572377 0.04442778192112605 18.233741799492783 1.58 bm303142 bm G g
151 661428054591 2458650.8869224 0.8143219721995701 0.04431368836097045 16.623075239351806 0.05914988691287293 18.036295863526767 1.55 bE087198 bE G g
152 661428054591 2458808.6166274 0.682493126110608 0.04049794817122348 16.814819918191695 0.06449809851217556 18.134058060843092 1.41 bi283106 bi G g
153 661428054591 2459189.5533108 0.763094126963615 0.03264379983334575 16.693620344565375 0.04649805295237677 18.368138846025943 1.63 bE185958 bE G g
154 661428054591 2458314.7765618 0.7829419204815904 0.024133408079680462 16.66574175529156 0.0335043566039549 18.696093969985093 1.47 bi106111 bi G g
155 661428054591 2458307.4799045 0.8248377569805542 0.0211884340386764 16.60914429083885 0.027921741419896784 18.83739345957701 1.50 bm061269 bm G g
156 661428054591 2458772.7122202 0.9736318862471072 0.10088055505528297 16.429078651004108 0.11262241796194976 17.143121953679913 1.53 bE129276 bE B g
157 661428054591 2458392.7656858 0.6782627005081706 0.08278681242614061 16.82157078553477 0.13267081561932892 17.3577377086919 1.50 bq101806 bq G g
158 661428054591 2458596.895213 0.9258027486834051 0.058013215357161044 16.483769457638942 0.06811153117572634 17.743823269649855 1.50 bi206681 bi G g
159 661428054591 2458830.5811788 0.9980259991930116 0.12545582859159513 16.402210984597406 0.13663474818099272 16.90641350358575 1.41 bi289782 bi B g
160 661428054591 2458823.2936658 1.0632019644886577 0.07638020016770654 16.333526196318296 0.07808672244502285 17.445188630983118 1.62 bm186059 bm G g
161 661428054591 2458752.3766522 0.8163576744900931 0.029654151825440095 16.620364422629965 0.0394836414607573 18.472426844539953 1.59 bm169098 bm G g
162 661428054591 2458798.5950709 0.6893597602079349 0.08115153244857472 16.803950800108993 0.12795668174408134 17.379398798027445 1.49 bE136987 bE G g
163 661428054591 2458252.5605652 0.9263278056822525 0.02954814010415334 16.483153871003175 0.03467189842996889 18.47631523747887 1.46 bm049724 bm G g
164 661428054591 2458603.9164355 0.8300334868774314 0.037958106039862397 16.602326587508564 0.04970740526157408 18.20437927466713 1.37 bi209310 bi G g
165 661428054591 2458834.5360467 0.08434734936268506 0.15321077210444517 16.68941735843158 99.999 16.68941735843158 1.58 bq214247 bq B g
166 661428054591 2458777.5261661 0.75775633417042 0.026676844377278713 16.701241683854104 0.03826635115765538 18.587304473236127 1.44 bi272983 bi G g
167 661428054591 2458777.7145587 0.8862581884794574 0.03834366993364318 16.531164970224694 0.04702681751611497 18.193406417574447 1.52 bq194732 bq G g
168 661428054591 2458418.4986527 0.9315929130282996 0.03984060245985901 16.477000182190913 0.04648489921739485 18.151825868701206 2.29 bE009726 bE G g
169 661428054591 2458432.6366337 0.8155552043547264 0.02400435618234675 16.621432213638574 0.03199255104158739 18.701915455675447 1.46 bE014011 bE G g
170 661428054591 2458807.2674939 0.49610202024932226 0.04931806073733324 17.161138133298167 0.10805557238212868 17.920125633625723 1.56 bm181653 bm G g
171 661428054591 2458744.5644646 0.7800794319710823 0.02193847969924203 16.669718554304946 0.030568904407438115 18.79962429048161 1.61 bi261127 bi G g
172 661428054591 2458019.5589609 0.8979331904646614 0.02711783015975397 16.5169555603799 0.03282638693008497 18.569503270444446 1.41 bi004570 bi G g
173 661428054591 2458756.7679918 0.7112529538408116 0.03726774299209803 16.770005414691454 0.056953600089828346 18.224307881889114 1.49 bq189013 bq G g
174 661428054591 2458392.2836683 0.8170934686397625 0.02846529782050178 16.619386274731344 0.03786658723481001 18.516851281410183 1.65 bm079133 bm G g
175 661428054591 2459031.4249413 0.754520803913886 0.06606986221128959 16.70588757528869 0.0951797051167369 17.602632108722094 1.53 bm225922 bm G g
176 661428054591 2459002.9439465 1.0457840384605768 0.06877603072625989 16.351460599740992 0.07148374079918329 17.55904784205496 1.49 bq253260 bq G g
177 661428054591 2458429.3966826 0.8398779645821981 0.04239543170226555 16.58952515462395 0.054867484234625875 18.084342956598654 1.27 bm088352 bm G g
178 661428054591 2458781.6822843 0.8054310843530111 0.0257268613489253 16.634994656004363 0.0347192705500753 18.62667359655636 1.45 bE131972 bE G g
179 661428054591 2458725.6427126 0.7506452011986088 0.025764439049846228 16.711478840927583 0.03730767213253795 18.625088883126768 1.42 bi254855 bi G g
180 661428054591 2458286.5382027 0.9002106667262507 0.029842564660853027 16.514205235654703 0.036033310293356026 18.465550252594557 2.02 bm056899 bm G g
181 661428054591 2459013.9292893 0.42907492363151095 0.07328594252726048 17.318732787632513 0.18565203603046168 17.490088917279046 1.46 bq255991 bq G g
182 661428054591 2458018.5612091 0.8308424591392186 0.021261706723604428 16.601268916049317 0.027815803745116587 18.833645303060884 1.39 bi004167 bi G g
183 661428054591 2458576.65084 0.842632767098505 0.030390435744756288 16.58596976392676 0.03920222856393527 18.44579829360606 1.56 bm123879 bm G g
184 661428054591 2459051.505768 0.9069213618903387 0.03501564846327036 16.506141543490028 0.04196668979187482 18.291985177534364 1.73 bm230931 bm G g
185 661428054591 2459102.5685079 1.0863035860298318 0.07023600856953924 16.3101875892778 0.07027822475906803 17.53624105356631 1.73 bm242637 bm G g
186 661428054591 2458689.950132 0.7944992942641669 0.10722388927186487 16.64983183285833 0.14669327785650163 17.07691172120564 1.47 bq174558 bq B g
187 661428054591 2458015.5736474 0.7851495924191283 0.017079865623497555 16.662684598340245 0.023645266467868516 19.07142948759764 1.49 bi003160 bi G g
188 661428054591 2458615.5867468 0.8757960553109746 0.028901362269518692 16.544058160415243 0.03586967995059536 18.500344827025604 1.51 bm133997 bm G g
189 661428054591 2458071.5546993 0.6780153677420164 0.0303426833170772 16.82196677828596 0.048643702027579186 18.44750565035247 1.45 bi019945 bi G g
190 661428054591 2458282.9217845 0.8883781329703934 0.046170017801992494 16.52857097217233 0.05649036158835754 17.991740506431796 1.97 bq079006 bq G g
191 661428054591 2459348.540425 0.8664647410765135 0.01796052670001337 16.555688385463693 0.022530993709212445 19.01684294047541 1.54 bm303843 bm G g
192 661428054591 2458831.529213 0.8170156090285629 0.05055301923889174 16.619489737835472 0.0672556721659844 17.89327286495633 1.51 bE146929 bE G g
193 661428054591 2458386.5887548 1.0057287117809688 0.09001340441008844 16.393863500665166 0.09728334870168798 17.26687264262555 2.02 bE000084 bE G g
194 661428054591 2459318.8783666 0.7119783324885165 0.03417825330902066 16.768898679706453 0.05217894090406357 18.318265950971707 1.51 bE226785 bE G g
195 661428054591 2459168.5739656 0.7992597647302957 0.01823270169251939 16.64334574516665 0.02479563577217667 19.000513045232942 1.47 bE179688 bE G g
196 661428054591 2458758.7628391 0.71887257048828 0.042865844690005483 16.758435840130726 0.06481442102320102 18.072362146173095 1.50 bq189411 bq G g
197 661428054591 2458308.483784 0.864180220317577 0.018049232444262375 16.558554817799067 0.0227021290888454 19.011493766517933 1.52 bm061723 bm G g
198 661428054591 2458653.825639 0.909996404921894 0.07841582803231789 16.502466430835728 0.09366476090047611 17.41663127956221 1.43 bi228243 bi G g
199 661428054591 2458606.870815 0.7996120477168446 0.03351269425351573 16.64286729980783 0.045555643744887304 18.33961725056794 1.41 bi210607 bi G g
200 661428054591 2458815.3403987 0.887842282903777 0.03219824361548647 16.52922606185613 0.03941926574158371 18.3830601564966 1.52 bm184172 bm G g
201 661428054591 2458641.90465 0.7780409565319873 0.020972625543531503 16.672559474513445 0.02929965565584853 18.84850860446209 1.49 bE083557 bE G g
202 661428054591 2458235.6053802 0.9262919583066559 0.033803367375279524 16.48319588803688 0.03966653310093819 18.330240698051398 1.62 bm045269 bm G g
203 661428054591 2458812.3416153 0.9003246325846099 0.03372348692841679 16.51406779113058 0.0407141632317631 18.332809428212467 1.57 bm183182 bm G g
204 661428054591 2458049.5034739 0.801681120279637 0.043936505950870036 16.640061482251344 0.05957115675752723 18.045576819682395 1.41 bi012020 bi B g
205 661428054591 2458639.8670073 0.868354583513075 0.0735744613644205 16.553322869773112 0.09209629583569347 17.48582288311368 1.53 bi222322 bi B g
206 661428054591 2458239.5905145 0.8745745342059003 0.09681251840907797 16.545573553683273 0.12032250443501077 17.187811817229232 1.59 bm046140 bm G g
207 661428054591 2458691.9463313 0.5987538409658059 0.07475560331213853 16.956944841278276 0.1357086752472503 17.46853123445808 1.55 bq175146 bq G g
208 661428054591 2458635.7631214 0.7319335691137657 0.02144779000470496 16.73888645746593 0.03185099878768074 18.82418423939541 1.54 bE080795 bE G g
209 661428054591 2459145.6085672 0.8381271969940769 0.037543394329671055 16.591790788234423 0.04868955149196552 18.21630677397308 1.34 bi320444 bi G g
210 661428054591 2458228.8825295 0.748778205273878 0.024240978910679948 16.714182635077307 0.03518917876444701 18.691265227108126 1.35 bi072969 bi G g
211 661428054591 2458626.7870493 1.1236496136284757 0.07593068736634681 16.27348835530028 0.07345114956829821 17.451597283021584 1.45 bi218654 bi G g
212 661428054591 2458046.5091653 0.7627201618810424 0.01818057599126343 16.694152555386268 0.02590923464503845 19.003621515731066 1.40 bi010869 bi G g
213 661428054591 2459014.940929 0.6238169532417506 0.057772027715338826 16.9124226891787 0.10066363533878799 17.74834658413582 1.54 bq256310 bq G g
214 661428054591 2458023.4979838 0.7072855011126289 0.026754946077520332 16.77607873372576 0.04111700732164242 18.58413041137982 1.50 bi006143 bi G g
215 661428054591 2458369.7968712 0.8354815929348727 0.027436164889239608 16.595223407040464 0.0356942853200523 18.556832100765416 1.52 bi127545 bi G g
216 661428054591 2458748.608955 0.7858914868413763 0.025370130375712244 16.661659161507494 0.03508910470589994 18.641833863834552 1.39 bi262777 bi G g
217 661428054591 2458731.8092342 0.5466436778369191 0.06364383442049654 17.055804798101637 0.1265505917228993 17.64324976848503 1.45 bq185906 bq B g
218 661428054591 2458762.7412332 0.8425628558505424 0.03395912368417722 16.58605984862914 0.043809302421479915 18.32524942459401 1.48 bE125938 bE G g
219 661428054591 2458691.6811269 1.0994517462583262 0.06928658794562184 16.297125188776015 0.06849914868282937 17.551017674441272 1.50 bm153341 bm G g
220 661428054591 2458415.5123764 0.9147333174157573 0.08272621128918074 16.49682937797976 0.098301650511189 17.35853277423913 2.17 bE008744 bE G g
221 661428054591 2458338.8229375 0.7696237320247421 0.021571703629269218 16.684369494560748 0.03046619142470005 18.817929499082886 1.38 bi115083 bi G g
222 661428054591 2458650.5172465 0.9387151228997569 0.07774147655267447 16.468731086036122 0.09001836967058527 17.426008648997446 1.51 bm143938 bm G g
223 661428054591 2458460.5454423 0.8358079344473315 0.02893412389068752 16.594799398161225 0.03762842319101317 18.499114769688983 1.55 bE022959 bE G g
224 661428054591 2459182.5787551 0.874384239156185 0.0671410091994994 16.545809820231145 0.08346371601570811 17.5851709492903 1.52 bE183939 bE G g
225 661428054591 2458249.8898503 0.696990522711137 0.02675784792574728 16.791998440172932 0.0417288562224092 18.584012658541738 1.37 bi081440 bi G g
226 661428054591 2458419.6738195 0.7986817912219357 0.05048194837629864 16.644131164118228 0.06870280958047821 17.89480034050602 1.44 bE010143 bE G g
227 661428054591 2459184.5633061 0.7502326749581723 0.08560530152819026 16.712075684538977 0.12402717703104432 17.32138895812714 1.81 bE184503 bE G g
228 661428054591 2458334.4051578 0.8732081511241081 0.023538884406175173 16.54727116963537 0.02930085328087959 18.72317592096411 1.65 bm068096 bm G g
229 661428054591 2458676.4160864 0.9128582742853042 0.04565248541852794 16.499057231221983 0.05435922328481911 18.003979545366125 1.57 bm149342 bm G g
230 661428054591 2458343.3877338 0.8876349828099752 0.01649031177976497 16.52947959731103 0.020193268946864344 19.109568444290947 1.75 bm069488 bm G g
231 661428054591 2458832.5379916 0.9678668623387998 0.06481434392647856 16.435526570251618 0.07278932317497595 17.623462788171945 1.79 bq213333 bq G g
232 661428054591 2458673.4087164 0.9520244855644435 0.03344414830402956 16.45344532640305 0.038184243855369705 18.34184025996334 1.53 bm148468 bm G g
233 661428054591 2459331.8404951 0.6625635693660172 0.11759865815611512 16.84699674028681 0.1929243235526375 16.976634695670107 1.57 bE231629 bE B g
234 661428054591 2459200.541513 0.7679720442859729 0.0701658020690586 16.686702094447316 0.09930983390538667 17.53732687639705 1.56 bq303714 bq G g
235 661428054591 2459192.5456472 0.9445527497072609 0.03649528058722467 16.4620000806739 0.04199742498158798 18.247048843961554 2.09 bE186837 bE G g
236 661428054591 2459139.6185748 0.6810256158718959 0.029604214798750285 16.817157003210298 0.04725004991959161 18.47425674481423 1.52 bq283154 bq G g
237 661428054591 2458758.5945932 0.8631701592601294 0.032761036464119035 16.55982457753866 0.04125469568379284 18.36424652863522 1.42 bi266683 bi G g
238 661428054591 2458804.6332942 0.7078033347571696 0.044948909307756794 16.775284111159653 0.06902695666712108 18.02084271650653 1.55 bq204124 bq G g
239 661428054591 2458070.5678965 0.780355118512352 0.021243099240407917 16.6693349139119 0.02958950958806002 18.834595916480627 1.41 bi019587 bi G g
240 661428054591 2458425.6582195 0.8124253125115644 0.03274950751845603 16.6256070069396 0.04381607789999005 18.364628677616967 1.44 bE011514 bE G g
241 661428054591 2458829.5841025 1.0091468967260784 0.16612927907764252 16.390179649717588 0.1789385707185886 16.601525160336863 1.57 bi289458 bi B g
242 661428054591 2458443.6009049 0.7541288687923549 0.06349711186158662 16.70645170646988 0.09152096240537179 17.645755681326463 1.48 bE017622 bE G g
243 661428054591 2458659.4398777 1.0046931590943236 0.03971954941927565 16.394982009331976 0.042971750022404706 18.1551298284644 1.53 bm146795 bm G g
244 661428054591 2458393.7674194 0.7702621244247297 0.05412099689480037 16.683469264484195 0.07637292380403822 17.819226142463243 1.99 bq101912 bq G g
245 661428054591 2458624.7890773 0.7849220853386762 0.09155432272200818 16.662999249804013 0.12678400829192762 17.248443475784672 1.41 bi217750 bi G g
246 661428054591 2458315.4651966 0.9318355278969926 0.03688694454021936 16.476717460576864 0.04302744822952617 18.23545890454076 1.54 bm062588 bm B g
247 661428054591 2458306.559376 0.8982011647439758 0.029698825611639484 16.5166315875342 0.035939980322521804 18.47079242084853 1.56 bm060882 bm G g
248 661428054591 2459060.8017193 0.6118948661306312 0.07121456127807287 16.93337359870592 0.126503973327122 17.52121860360887 1.44 bq265811 bq B g
249 661428054591 2458715.617008 0.7953340022105586 0.03372061380459979 16.648691747639234 0.04608484107316304 18.3329019331022 1.42 bi250593 bi G g
250 661428054591 2458678.6376887 0.7252199777220809 0.0697830267593336 16.748891224405583 0.10459049443315474 17.543266105068923 1.46 bE095689 bE G g
251 661428054591 2458454.3094189 0.888791344941548 0.02393238688099899 16.52806608030807 0.029268358821379667 18.705175574315994 1.53 bm093198 bm B g
252 661428054591 2458818.2716501 0.7375080861634871 0.07294909066555409 16.73064865639595 0.10751406166451981 17.495090904843607 1.53 bm184812 bm G g
253 661428054591 2459328.6071052 0.9436422911444197 0.03630816842424044 16.46304713130144 0.041822416006036055 18.252629758046513 1.53 bm299002 bm G g
254 661428054591 2458804.3215289 0.8425373340749033 0.02268422644479152 16.586092736781417 0.029264896494879067 18.7633306765154 1.52 bm181417 bm G g
255 661428054591 2459079.7866468 0.8863041780219004 0.036369903595928975 16.531108630868484 0.04460376571489163 18.250785236713817 1.51 bq271008 bq G g
256 661428054591 2458814.3424808 0.7146262190025796 0.0417090637054764 16.76486825718638 0.06344007203314882 18.102064509406667 1.50 bm183844 bm G g
257 661428054591 2459060.3615932 0.7492606537905476 0.056327537026843844 16.713483304967916 0.08171466553740268 17.775838707126056 1.60 bm234109 bm G g
258 661428054591 2458698.811215 0.8886050349817961 0.030687968456962637 16.528293698043353 0.0375380356177068 18.435220263703613 1.48 bE103173 bE G g
259 661428054591 2458075.5352943 0.7618593335493988 0.018511037082222716 16.695378641120556 0.026409983568669165 18.984063734404664 1.44 bi021296 bi G g
260 661428054591 2458396.7019448 0.8310739084519951 0.02931589837468405 16.600966502636737 0.038342085589425055 18.48488259265253 1.74 bE003021 bE G g
261 661428054591 2459188.5436009 0.7191421766503334 0.045418790413290396 16.75802872167081 0.06864880416161835 18.009551701518692 1.38 bi332538 bi G g
262 661428054591 2458020.5520018 0.770812962983137 0.02334239811016945 16.682693098032352 0.03291611983364492 18.732276931985368 1.39 bi004971 bi G g
263 661428054591 2458763.6805962 0.800894095653737 0.04282654142567927 16.641127892352504 0.058123275922237615 18.073358103503047 1.46 bE126249 bE G g
264 661428054591 2459171.5803671 0.8179536179418094 0.031021601610374466 16.618243928027635 0.041223770450500616 18.423480070962942 1.49 bE180520 bE G g
265 661428054591 2459072.9015505 0.8917465745288923 0.05717401415272229 16.5244619978928 0.06968983042086621 17.75964389935252 1.48 bq269431 bq G g
266 661428054591 2458320.5186158 0.8293452968063506 0.0230877947803719 16.603227156957942 0.030259325284338823 18.744184477769018 1.51 bm063937 bm G g
267 661428054591 2458050.5004101 0.8501377460543716 0.02784859379969351 16.57634237415941 0.035606242391106345 18.5406324349705 1.35 bi012344 bi G g
268 661428054591 2458358.5429523 0.8195930323554277 0.07480519272329264 16.616069978140075 0.09920776395189544 17.467811246032465 1.45 bi123015 bi G g
269 661428054591 2458730.7688688 0.8220755929680293 0.03522409768061446 16.612786236280535 0.04657365213591624 18.28554091943364 1.45 bq185489 bq G g
270 661428054591 2458441.6074712 0.6983187831890542 0.054290786780479584 16.78993131294924 0.08450542385799574 17.81582527273194 1.53 bE016937 bE G g
271 661428054591 2458289.8010899 0.7218445687746992 0.021191366828188625 16.753956389405495 0.03191004736319524 18.837243188188552 1.62 bi095822 bi G g
272 661428054591 2459198.5302552 0.9357405135012502 0.06135456311722677 16.47217703990917 0.07126948289242331 17.683023441423735 1.55 bE188573 bE G g
273 661428054591 2458099.5489712 0.7258268116369463 0.02871692433066284 16.747983105391246 0.04300481559107263 18.50729580191677 1.55 bq024095 bq G g
274 661428054591 2458340.3902629 0.8369584524199339 0.02362685543554395 16.59330587315515 0.030684157056540245 18.719125801422564 1.59 bm069029 bm G g
275 661428054591 2458414.4115378 0.46452771827619066 0.13238044688148684 16.84808100439636 99.999 16.84808100439636 1.52 bm084604 bm B g
276 661428054591 2458331.6336522 0.7588862493949392 0.057694289642408705 16.699623912985956 0.08263581589984297 17.749808535204362 1.47 bi112089 bi G g
277 661428054591 2458012.5800154 0.7910456162413512 0.015505959424592708 16.654561801936623 0.021306361322709185 19.17639400346812 2.23 bi001788 bi G g
278 661428054591 2458679.762178 0.6312400978590653 0.07685082074168358 16.89957917606503 0.13233237414652962 17.438519336482543 1.47 bi236444 bi G g
279 661428054591 2458226.908225 0.6973162979817049 0.03591571209132877 16.791491082671616 0.055984375531688765 18.264429407700785 1.58 bi072114 bi G g
280 661428054591 2459425.3437635 0.9341424043493304 0.038361197680238095 16.474032905184263 0.04463661408166401 18.192910216746803 2.18 bm318749 bm G g
281 661428054591 2458754.7638084 0.7326458897231867 0.02777555970050234 16.737830328580113 0.041207937128839266 18.543483563706896 1.45 bE123570 bE G g
282 661428054591 2459008.5432909 1.1734701162158365 0.10605333065645203 16.2263855366315 0.09823459312361763 17.088829830701485 1.56 bm220552 bm G g
283 661428054591 2459117.2490778 0.6184838899143487 0.10392569109884246 16.92174464293697 0.1826445434686696 17.11083330839995 1.98 bm246441 bm G g
284 661428054591 2458433.6276242 0.7943983254856217 0.0312573057130613 16.64996982218779 0.04276863533925047 18.41526176043795 1.43 bi148814 bi G g
285 661428054591 2458726.8401114 0.8035774474542081 0.025090479015564385 16.63749627304625 0.03393855798955908 18.653868229595425 1.47 bE114241 bE G g
286 661428054591 2458434.6303657 0.7403061373404084 0.02372918054876207 16.726537247739245 0.03484043458786331 18.714433759503525 1.55 bE014724 bE G g
287 661428054591 2458775.5249513 0.7310977117444973 0.030706382356857936 16.74012706075096 0.04565258791764138 18.434568977775136 1.77 bi272309 bi G g
288 661428054591 2459156.6590304 0.9814856273002417 0.13488530706953963 16.420355761652303 0.1493801438634528 16.827728999051722 1.47 bq287521 bq B g
289 661428054591 2459177.6046589 0.9592704273769668 0.12292317101315814 16.445212981932283 0.13928516776124986 16.928556223700145 1.55 bq295656 bq B g
290 661428054591 2459398.866474 0.6688270723158332 0.09778767294196003 16.836781012642398 0.15892142117082828 17.17693033313128 1.39 bi404872 bi B g
291 661428054591 2458240.8563416 0.7393129560928318 0.07088369233143975 16.72799482963329 0.10421498910528217 17.526274781774177 1.43 bi077704 bi G g
292 661428054591 2458697.8403923 0.6681753055289322 0.052444380709365454 16.837839570002323 0.08531408025546418 17.853393207937742 1.55 bq176454 bq G g
293 661428054591 2458581.6354498 0.8114307277534154 0.03069848959736688 16.626936997762527 0.04112233162254476 18.43484809096304 1.67 bm125083 bm G g
294 661428054591 2458398.6965611 0.8493556556169438 0.02760407554921162 16.577341664844997 0.0353261083815366 18.55020759306685 2.16 bi138129 bi G g
295 661428054591 2459405.4277426 0.9602435947304014 0.029075305698703605 16.44411207502848 0.032912058277918356 18.49382988741542 2.30 bm314351 bm G g
296 661428054591 2459034.4361179 0.9608647031207598 0.10181237193325895 16.443410022061723 0.11517294922704384 17.133139223025 1.46 bm227049 bm G g
297 661428054591 2459480.2551643 0.8776823004670431 0.05309470006162494 16.541722271363415 0.0657545793860216 17.840012682037333 2.24 bm329850 bm G g
298 661428054591 2458047.5130398 0.8440368053460201 0.021684846412648486 16.584162159716417 0.027925897403818466 18.812249735151315 1.48 bi011245 bi G g
299 661428054591 2458992.5339603 0.9222428292561258 0.0327978306195531 16.487952404461403 0.03865556311191215 18.363027814747998 1.52 bm215914 bm G g
300 661428054591 2458309.8277963 0.7859274081227013 0.020777948712354076 16.66160953615207 0.028736403168838763 18.85863393660378 1.75 bi103865 bi G g
301 661428054591 2459173.5824686 0.7433879263967447 0.04297663735583208 16.72202686403191 0.06283897625666869 18.069559532072574 1.42 bi327743 bi G g
302 661428054591 2459525.6174851 0.7851166103891092 0.03847618303297073 16.662730208166195 0.05326844130655797 18.189660656376226 1.45 bq386143 bq G g
303 661428054591 2459507.6422979 1.0928524343978885 0.18185893822104662 16.303661812223353 0.1808778136133529 16.503303983589735 1.57 bq379815 bq G g
304 661428054591 2458468.5262965 0.47753841163838834 0.11092384010619857 17.04007837109469 99.999 17.04007837109469 2.24 bE025376 bE G g
305 661428054591 2458271.9026364 0.792897387017163 0.07746940498427048 16.652023155677185 0.1062002175334196 17.429815060657955 1.44 bi089741 bi G g
306 661428054591 2459069.3514726 0.8886064171542464 0.062317737274564015 16.528292009246368 0.07622797859995104 17.666111421596188 1.62 bm236455 bm G g
307 661428054591 2458251.5648759 0.8710781284930135 0.020064170630908314 16.549922848851203 0.02503665332325863 18.896587580144224 1.49 bm049300 bm G g
308 661428054591 2459086.2877827 0.8121126216266985 0.03643366535611863 16.62602497171796 0.048763938787664614 18.248883448924737 1.61 bm239507 bm G g
309 661428054591 2458817.3349987 0.8617837457311462 0.026860208447806223 16.561569875987463 0.033878428192963154 18.579867164755942 1.63 bm184552 bm G g
310 661428054591 2459082.7330783 0.7175685189934319 0.06717392592738922 16.760407179324737 0.10175353982922612 17.584638783840585 1.46 bq272014 bq G g
311 661428054591 2458444.5975612 0.6147492148209808 0.0821303820500346 16.928320665494397 0.14521719141716707 17.366381003788366 1.49 bE017951 bE G g
312 661428054591 2458076.5359179 0.7193529565113539 0.023370700150253793 16.75771054008965 0.03531358940835477 18.73096130298655 1.42 bi021663 bi G g
313 661428054591 2459374.9057692 0.6873326148234548 0.033954620056315624 16.80714824169702 0.05369626716006539 18.325393423483185 1.39 bi395893 bi G g
314 661428054591 2458722.4001888 0.9021284274846763 0.028401708095515545 16.511894701438386 0.03422065074373911 18.519279462543793 1.53 bm161428 bm G g
315 661428054591 2458395.6593018 0.8124869357954319 0.09763607680480312 16.625524655870546 0.13061892538137235 17.178614810558834 1.65 bE002652 bE B g
316 661428054591 2458073.546376 0.7989223962870033 0.024098138748330226 16.64380413238633 0.032786199505743026 18.69768186004081 1.81 bi020673 bi G g
317 661428054591 2458998.9570785 3.440735921287613 0.5351085957395125 15.058437268489751 0.16904516687234347 15.331535793097116 1.57 bq252091 bq B g
318 661428054591 2458828.5842177 0.9210999500768232 0.14829317437861947 16.48929872536877 0.17499537700202333 16.72483770686383 1.49 bi289134 bi B g
319 661428054591 2459402.812866 0.7675329761222992 0.028331928658782736 16.687323013569447 0.04012280330246642 18.521950262561077 1.46 bE256173 bE G g
320 661428054591 2459162.6527221 0.8247427649075003 0.03715859330795313 16.60926933636603 0.04897257308981864 18.22749244946737 1.66 bq289864 bq B g
321 661428054591 2458348.5939332 0.87277548623178 0.13522722841229365 16.547809273129232 0.16841228948130083 16.824980244140136 1.41 bi119325 bi B g
322 661428054591 2458068.5637612 0.7377318283481883 0.019590225318784585 16.730319320143675 0.028863771840059355 18.922542033688362 1.41 bi019172 bi G g
323 661428054591 2458761.7445197 0.7827688107028015 0.02175704220811505 16.665981839939704 0.03021193307463438 18.80864097578922 1.52 bE125569 bE G g
324 661428054591 2458287.8267633 0.7567826089349395 0.021070440391542804 16.702637764017144 0.0302631856613819 18.843456579301602 1.64 bi094903 bi G g
325 661428054591 2458074.538181 0.8069302400105662 0.020590027182198038 16.632975644485754 0.027735314924104304 18.86849831154708 1.34 bi020931 bi G g
326 661428054591 2458677.4066101 0.9198039709626367 0.03240150079819024 16.490827421854508 0.03828970489208635 18.37622779477772 1.46 bm149753 bm G g
327 661428054591 2459136.686318 0.8109713333421309 0.03255789691636482 16.62755186527273 0.043637816692619416 18.370999751973933 1.57 bq282148 bq G g
328 661428054591 2458674.4365968 0.8341176678873916 0.0362733840782181 16.596997321498616 0.04726862037250402 18.25367042541789 1.50 bm148814 bm G g
329 661428054591 2459336.8231956 0.5375928950402655 0.16568738389334714 16.604417009586626 99.999 16.604417009586626 1.39 bi382481 bi B g
330 661428054591 2459156.3583789 0.7327034672116082 0.06983798238415902 16.73774500563171 0.1036037821773276 17.54241140111032 1.51 bm254837 bm G g
331 661428054591 2459554.5631378 0.8189803022467301 0.029951437063296463 16.61688198121582 0.039751761748234624 18.4615964499972 1.51 bq396085 bq G g
332 661428054591 2459299.9120829 0.764682963334772 0.09822157643789144 16.69136208607406 0.13961679310740027 17.1721233609508 1.56 bE219811 bE G g
333 661428054591 2459187.552865 0.7467238737295243 0.024596723520405928 16.717165531013787 0.03580382251659942 18.675447462766883 1.88 bE185357 bE G g
334 661428054591 2458040.5169076 0.7692764715701041 0.02268771765193487 16.684859498075724 0.032056826871117015 18.763163589559937 1.65 bi014106 bi G g
335 661428054591 2459157.3537728 0.9943229489665842 0.09167952025091353 16.40624696467236 0.10022060996401089 17.246959781410023 1.48 bm255544 bm B g
336 661428054591 2458223.6601472 1.0033828839851697 0.04052482251993711 16.39639890121812 0.043900210810270776 18.133337807655035 1.48 bm042405 bm G g
337 661428054591 2458803.6391861 1.047280617137997 0.10994987431305221 16.34990795785207 0.11411529154007272 17.049653768336565 1.55 bq203684 bq B g
338 661428054591 2459053.825515 0.8164158945784379 0.036958424765587375 16.620286994064262 0.04920555944455661 18.233356980112056 1.46 bq263891 bq B g
339 661428054591 2459433.5527979 0.941897423679139 0.03187635163232556 16.465056599789897 0.03678554312280303 18.39396908909087 1.54 bE268443 bE G g
340 661428054591 2458828.539326 0.8203599083280311 0.08197057208943377 16.615054552577487 0.10860897396228006 17.368495696123546 1.48 bE145991 bE G g
341 661428054591 2459006.505551 0.9845974932066179 0.1562618807323919 16.41691880798025 0.17250690920218756 16.668007993756078 1.61 bm219714 bm G g
342 661428054591 2458752.610627 0.698531741675682 0.031432630542212146 16.78960025857124 0.04891102397339131 18.409188791720233 1.43 bi264350 bi G g
343 661428054591 2458242.58879 0.9112652996101036 0.06346510238345729 16.500953539939818 0.07570112344676805 17.6463031489371 1.49 bm046873 bm G g
344 661428054591 2458342.3910545 0.9006125006703102 0.020573813628983712 16.513720695388336 0.024830702310288805 18.86935360795752 1.80 bm069306 bm B g
345 661428054591 2459487.7445998 1.0663912301595282 0.10058441073368418 16.33027421016163 0.10252417512464906 17.146313921495473 1.50 bq373540 bq B g
346 661428054591 2459359.5108768 0.8687075334228477 0.16659276595222175 16.552881652965674 0.20844655589994388 16.598500264252102 1.61 bm305865 bm B g
347 661428054591 2458447.3268503 0.9258798427002858 0.06455669815505724 16.483679049308986 0.07578772195421757 17.62778733727291 1.49 bm091529 bm G g
348 661428054591 2458233.6093314 0.8361734096615664 0.026637106260225873 16.594324740139765 0.03462604291797481 18.58892300346573 1.48 bm045074 bm B g
349 661428054591 2458746.6191444 0.9081968765538848 0.025552339224654066 16.50461561239801 0.030581785164596344 18.63406395047512 1.48 bE120420 bE G g
350 661428054591 2459459.4628306 0.9076307781307765 0.031781818011226697 16.505292585867107 0.0380611314560903 18.39719377025961 1.61 bm325299 bm G g
351 661428054591 2459454.5658462 0.6418670713713654 0.04514990080701375 16.881452881344355 0.07645816607043936 18.015998610145832 1.45 bE274325 bE B g
352 661428054591 2459538.6207566 0.7567494208979344 0.14764128361374304 16.7026853790694 0.212064458419373 16.729621080551343 1.53 bq391215 bq G g
353 661428054591 2458690.8108698 0.755736808840958 0.057564206001670504 16.7041391836916 0.08279309463331715 17.752259314690523 1.50 bq174761 bq G g
354 661428054591 2459368.8384209 0.7746549181006424 0.039604199359439096 16.677294916145655 0.055570605409112316 18.158287516455484 1.46 bE243495 bE G g
355 661428054591 2459426.5017155 0.8089202116267306 0.03908915084680514 16.63030140526984 0.05252459616101832 18.172500021096564 1.66 bm319278 bm G g
356 661428054591 2458614.5803935 0.8021898760879593 0.02426291789357175 16.639372680445895 0.03287592828951024 18.690283040058628 1.51 bm133562 bm G g
357 661428054591 2459433.8570505 0.7900557872555269 0.030679614300878948 16.65592122556935 0.04220892674506281 18.435515872863 1.37 bi419504 bi B g
358 661428054591 2458445.5908897 0.52748120641291 0.1278868594148658 16.88557580569509 99.999 16.88557580569509 1.53 bi152723 bi G g
359 661428054591 2459373.9426399 0.8257137900045411 0.05568055947074387 16.607991778078183 0.07329700434151123 17.788381635550316 1.51 bq349306 bq B g
360 661428054591 2459025.4428432 0.8945765926649817 0.032989618954125284 16.521021796503035 0.04008408197340818 18.35669736327877 1.70 bm225156 bm G g
361 661428054591 2458638.7902943 0.6688377115269907 0.038800904417386414 16.83676374168351 0.06305699481204095 18.18053598953769 1.45 bE082144 bE B g
362 661428054591 2458288.9260439 0.7570970688329283 0.02518598080795705 16.702186710335514 0.03615925516368189 18.649743441227418 1.45 bi095451 bi G g
363 661428054591 2459333.8269882 0.783080766621335 0.08400567215016573 16.665549228985974 0.11660420878508923 17.34186908377705 1.54 bE232430 bE G g
364 661428054591 2458424.662666 0.7999731369643059 0.032492719812868415 16.642377113127516 0.044149199613955845 18.37317544740084 1.47 bE011200 bE G g
365 661428054591 2458621.5454977 0.9697195402040958 0.1486693632719755 16.433450255054016 0.1666431656695982 16.72208690790407 1.51 bm136386 bm B g
366 661428054591 2458292.9506642 0.9343689605085423 0.1376541434321794 16.473769615133907 0.1601338178727451 16.80566739063227 1.65 bi097349 bi B g
367 661428054591 2459464.7874198 0.7311149928241514 0.04077465039154368 16.74010139732487 0.06062011119963635 18.126664996399555 1.45 bq366960 bq G g
368 661428054591 2458361.6643431 0.7038340336889864 0.052919082720830755 16.781389964308087 0.08172486599770915 17.84360984222713 1.55 bi124323 bi G g
369 661428054591 2458092.5661915 0.6899427065070788 0.05379582965502667 16.803033052254015 0.08475157043391199 17.825769087146554 1.58 bq023085 bq G g
370 661428054591 2459520.6690614 0.8871591879501202 0.03302090434585794 16.53006173548375 0.04045755014428403 18.35566820358333 1.52 bq384623 bq G g
371 661428054591 2458322.8628436 0.7266952645711222 0.05486276512297545 16.746684796855263 0.08206113794652903 17.80444638000318 1.45 bq087401 bq G g
372 661428054591 2458729.672843 0.7553649669503961 0.03512645576864612 16.70467352521332 0.05054633436000785 18.288554781352314 1.48 bi256573 bi G g
373 661428054591 2458211.912228 0.8767431995771553 0.07691799000147725 16.54288460733428 0.09536031863320243 17.43757079429781 1.46 bi066150 bi G g
374 661428054591 2459196.5475978 0.7193589377595142 0.03824351454452236 16.757701512489746 0.05778622516022819 18.19624611966821 1.75 bi335046 bi G g
375 661428054591 2458705.8486969 0.7958582647157101 0.02169661106306148 16.64797629569157 0.02963250360044482 18.811660851884312 1.47 bE105963 bE G g
376 661428054591 2459062.3291791 0.8274276652609163 0.11377408876391848 16.605740528401945 0.14946017999998987 17.012532196807726 1.57 bm234919 bm G g
377 661428054591 2458799.5575618 0.8045717865516059 0.07218956139076714 16.636153623903247 0.097526306374091 17.506454603603256 1.46 bi279985 bi G g
378 661428054591 2459471.7793388 0.7886567291020263 0.03386052327852755 16.65784558921597 0.04666785338787594 18.328406447977038 1.47 bq369188 bq G g
379 661428054591 2458643.7959431 0.7839670117976711 0.027610353124805302 16.664321150825142 0.03828127069748811 18.54996070864576 1.57 bi224106 bi G g
380 661428054591 2458282.8338899 0.7283372981337394 0.02561190508679533 16.744234245450578 0.03822271266292325 18.631535902101355 2.36 bi092572 bi G g
381 661428054591 2458667.6566038 0.7446534503719292 0.0321295606103939 16.72018010687775 0.04689891039736302 18.385378645508155 1.51 bi231798 bi G g
382 661428054591 2459495.7353425 0.8874124662876594 0.046814964022423994 16.529751808902695 0.05734180259156017 17.976678876534006 1.47 bq375485 bq G g
383 661428054591 2459376.5119724 0.8716919843427581 0.025044554305803355 16.549157991176376 0.031229312791338778 18.65585734302464 1.59 bm309854 bm G g
384 661428054591 2458296.9272794 0.7814093439137519 0.04636965564656048 16.667869121998123 0.06450114784062488 17.98705593463959 1.52 bi099115 bi G g
385 661428054591 2458210.9095576 0.9210307940069911 0.08779182926303952 16.489380245368448 0.10360772082083577 17.294005365842608 1.47 bi065720 bi G g
386 661428054591 2458426.6538587 0.702742033495179 0.033763321817871984 16.783075794761032 0.05222295109200237 18.331527690713823 1.45 bi146385 bi G g
387 661428054591 2459518.6587762 0.8388894716983423 0.028796149941744387 16.59080376250374 0.03731142663739643 18.504304545761812 1.49 bq383792 bq G g
388 661428054591 2459461.6768877 0.7399836669034983 0.02899496630263156 16.72701028731954 0.042590491020069704 18.49683409055171 1.57 bi428280 bi G g
389 661428054591 2458589.885718 0.7818059902165483 0.027230923449920213 16.66731813807253 0.03785955877451306 18.564984688187348 1.40 bi203763 bi G g
390 661428054591 2458455.3048945 0.9598785680298743 0.02705299179686386 16.444524884918316 0.030634526955331694 18.572102359368042 1.64 bm093502 bm G g
391 661428054591 2458803.3731549 0.8780384299301668 0.06061496959597746 16.541281811043838 0.07503753169733916 17.69619088229351 1.56 bm181133 bm G g
392 661428054591 2458708.8054883 0.5076690066932346 0.17548853290930735 16.5420187532683 99.999 16.5420187532683 1.59 bq179333 bq B g
393 661428054591 2459150.5154575 0.7149419735453141 0.05935392372822904 16.764388635233086 0.09023828069190347 17.71901702574338 1.52 bE176142 bE G g
394 661428054591 2459375.5128877 0.7862039770617184 0.03205302668329687 16.661227531294042 0.04431451304163637 18.38796799874025 1.45 bm309430 bm G g
395 661428054591 2459371.6874002 1.0601033262024027 0.08606753619822202 16.33669512937366 0.08824769007734869 17.315542184277593 1.52 bm308724 bm G g
396 661428054591 2459457.7106813 0.7560727912151428 0.027618980799779487 16.70365659880286 0.0397060066873451 18.549621491114316 1.53 bE275476 bE G g
397 661428054591 2459523.6549925 0.909769455415423 0.04388849115373294 16.50273724292477 0.05243623140442425 18.046763985307862 1.37 bi449389 bi G g
398 661428054591 2459473.7614919 1.128022852219891 0.09029039315554617 16.26927087739161 0.08700331868071039 17.263536751203457 1.37 bi432636 bi G g
399 661428054591 2458631.7756438 0.6602274602803454 0.1445184266273289 16.75283254955215 99.999 16.75283254955215 1.53 bE080344 bE B g
400 661428054591 2458045.5085552 0.7573139836973584 0.02505527117116332 16.701875682067623 0.03596129345252098 18.65539284284766 1.36 bi010474 bi G g
401 661428054591 2459383.7078851 0.8368385287155691 0.0368351483528492 16.593461454159687 0.047844600072144035 18.23698455317451 1.49 bE249021 bE G g
402 661428054591 2459521.6242389 0.8649851808417353 0.05207606849370006 16.55754395458491 0.06543975958140459 17.861045137592807 1.45 bi448743 bi G g
403 661428054591 2458720.6139935 0.8056228326372861 0.030414925595591297 16.634736206484796 0.04103620254420317 18.444923715491488 1.47 bE111764 bE B g
404 661428054591 2458579.9175955 0.4073257031134801 0.10217590756912281 17.129269351477443 99.999 17.129269351477443 1.42 bi199549 bi G g
405 661428054591 2458829.5360414 0.8833641025493132 0.09483878013759132 16.53471625536772 0.11669664896597234 17.21017571335289 1.53 bE146302 bE G g
406 661428054591 2459400.8779066 0.7831274912401945 0.04730454121698473 16.66548444754952 0.0656572271549953 17.965383524354095 1.46 bi405749 bi B g
407 661428054591 2459542.5972811 0.7343803694213298 0.048450649928283844 16.735262974014468 0.07171181599468018 17.939391593559634 1.47 bi455660 bi G g
408 661428054591 2459352.78431 0.7422860833791147 0.027377201132936683 16.723637326445157 0.04008943180362839 18.559167994884906 1.46 bE238001 bE G g
409 661428054591 2459501.5028344 0.7781302547103982 0.057037293417387946 16.67243486834579 0.07967439601156756 17.762243339396743 2.03 bi442087 bi G g
410 661428054591 2458617.8171412 0.8047706546048492 0.03458805504944959 16.63588529288686 0.04671605729551754 18.305325257652317 1.38 bi215024 bi G g
411 661428054591 2459508.6362015 0.7100144525873557 0.08978149987545883 16.771897649727304 0.13744591601696193 17.269673470490222 1.53 bE292057 bE G g
412 661428054591 2459517.6633474 0.8165667620587258 0.0335805164048094 16.620086376764046 0.044700033121052245 18.337422185240065 1.47 bE294941 bE G g
413 661428054591 2458346.7840486 0.8602364246221693 0.03140344806705119 16.563521052901024 0.039680001572323216 18.41019727196935 1.34 bi118597 bi G g
414 661428054591 2459496.7417089 0.6868246542951627 0.04636551905624137 16.807950931714633 0.07337724848232262 17.987152796394387 1.53 bq375895 bq G g
415 661428054591 2459387.7016851 0.9228743363425369 0.07924286927380698 16.487209199480347 0.09333183312892153 17.405240130570043 1.40 bi400667 bi G g
416 661428054591 2458238.5948523 0.8261565786061351 0.08299111722370126 16.60740970864168 0.10918963601901513 17.355061583730183 1.56 bm045719 bm G g
417 661428054591 2459537.5410085 0.779757859063837 0.060737927668965096 16.670166220679917 0.08466665110110333 17.69399068633274 1.46 bE300908 bE G g
418 661428054591 2459413.3537431 0.8626830921475505 0.0605651603480223 16.56043740648212 0.07631040486324889 17.697083433026165 1.99 bm316435 bm G g
419 661428054591 2459470.5503368 0.767932346559772 0.035959461626849785 16.686758219371303 0.050898196317206545 18.2631076589504 1.38 bi431284 bi G g
420 661428054591 2459356.7806309 0.7969858626336118 0.030479032076001923 16.6464390779973 0.04156834423866886 18.442637683999486 1.47 bE238852 bE G g
421 661428054591 2459070.9105568 0.4692421288603011 0.09628860727889765 17.193703348682895 99.999 17.193703348682895 1.52 bq268963 bq G g
422 661428054591 2459377.7056893 0.8846904198024143 0.0427001775388292 16.533087311336185 0.0524626868522155 18.076566409595458 1.44 bi397067 bi G g
423 661428054591 2459167.6222487 0.7355828708085675 0.0250265512482453 16.733486603629274 0.03698124871507267 18.656638095596932 1.52 bq291761 bq B g
424 661428054591 2459516.6672458 0.7933377559513284 0.03144624145861248 16.65142031377234 0.04308467229904442 18.408718749415836 1.55 bq382977 bq G g
425 661428054591 2458773.7231113 0.7218642295167161 0.11786286308038502 16.753926817819526 0.17747355036810836 16.974198144928078 2.07 bq193752 bq G g
426 661428054591 2459464.5186576 0.9212490657571472 0.030357006699353324 16.48912297116391 0.03581740013513232 18.44699324526453 1.49 bE277805 bE G g
427 661428054591 2458716.5658965 0.8817084296051152 0.04220000266122973 16.536753140031934 0.05202351091343837 18.08935941556896 1.54 bm159767 bm G g
428 661428054591 2458041.5211259 0.7882454290199445 0.023038890595612826 16.658411969822357 0.03176963857268628 18.746486705358926 1.43 bi014512 bi G g
429 661428054591 2458342.5592324 0.7665466579573502 0.02400714293784927 16.688719135993423 0.03404192075424932 18.701789415814094 1.38 bi116645 bi G g
430 661428054591 2458786.4138409 0.875613602007834 0.025797105938854887 16.54428437380488 0.03202363745599135 18.623713143557804 1.51 bm177403 bm G g
431 661428054591 2459303.9006369 0.18896199114166923 0.14077635496123964 16.781316321234506 99.999 16.781316321234506 1.38 bi370090 bi B g
432 661428054591 2458401.6375438 0.7658034494068968 0.026875691792919064 16.689772326762697 0.03814648326955043 18.579241481413906 1.55 bq103410 bq G g
433 661428054591 2458824.2909804 0.9122896632874261 0.06975481804416264 16.499733737004426 0.0831100662947454 17.543705085960614 1.58 bm186373 bm G g
434 661428054591 2459431.6206139 0.7622477298204938 0.022154190739632172 16.69482527329938 0.03159162194417651 18.78900088516328 1.42 bE267687 bE G g
435 661428054591 2458703.7335641 0.8772785880991755 0.02411271872671523 16.54222179832688 0.029875888038773637 18.697025161043577 1.48 bE105031 bE G g
436 661428054591 2458435.6327 0.7890304931852713 0.03737107109645174 16.657331153656024 0.05148182459803468 18.221301747965242 1.47 bi149458 bi G g
437 661428054591 2459499.695099 0.6755255066154646 0.07617384659495552 16.8259612426872 0.12256777654063415 17.448125894022887 1.61 bq377051 bq B g
438 661428054591 2458800.6227494 1.0253984619513226 0.07165825763440622 16.372833968072467 0.07596013975285075 17.514475001146966 1.54 bE137678 bE G g
439 661428054591 2458372.5589848 0.7714827698481069 0.018252358766060066 16.681750044642868 0.025716090071327805 18.999343119887087 1.39 bi128582 bi G g
440 661428054591 2459452.7096629 1.050515580324972 0.18966057110683657 16.34655937762153 0.19623963560594856 16.45769797650505 1.50 bq364474 bq B g
441 661428054591 2459510.6946153 0.9187006151400124 0.17393158731848246 16.4921306043608 0.2057863792150078 16.551694460455323 1.54 bq381119 bq B g
442 661428054591 2459493.7094283 0.795448661589721 0.03908636854211088 16.648535233688936 0.0534103396604365 18.172577304854038 1.50 bq374775 bq G g
443 661428054591 2458313.7538825 0.7594422013425958 0.01689782979220656 16.698828805465762 0.02418512727289298 19.083063283308956 1.63 bi105641 bi G g
444 661428054591 2458611.8833485 0.7245622857354532 0.03911445025724231 16.749876310329785 0.05867778055574004 18.171797534601282 1.38 bi212410 bi B g
445 661428054591 2458816.5952334 0.7547112476923582 0.022471577900831503 16.705613566124708 0.03236420316745339 18.77355668989988 1.47 bE142733 bE G g
446 661428054591 2458753.7782562 0.8245661307064177 0.042546840637457506 16.609501892133306 0.056085939244993964 18.080472319935936 1.55 bq187912 bq G g
447 661428054591 2459401.6549134 0.7692496870489538 0.0316554184139934 16.684897301689503 0.04472938250448897 18.40152046569377 1.51 bE255664 bE G g
448 661428054591 2459562.5374657 0.44427212671190713 0.0658460077511898 17.280942955289323 0.16109889244087672 17.606316989476653 1.46 bE308446 bE G g
449 661428054591 2459513.6769913 0.7250093245030725 0.05788301120592243 16.749206641874782 0.08678001013476608 17.74626282138812 1.48 bq382254 bq G g
450 661428054591 2459506.6994099 0.5584252106670148 0.14207234979157304 16.771366702714328 99.999 16.771366702714328 1.64 bi443973 bi G g
451 661428054591 2459551.5650215 0.6397988922606365 0.05151510682814157 16.884956912739728 0.08751919081492532 17.872804099517538 1.38 bi458317 bi G g
452 661428054591 2458389.7035459 0.9299694929079103 0.08670493918377409 16.478893867238966 0.10134149542702303 17.30753101656481 1.48 bq100704 bq G g
453 661428054591 2458779.650542 0.7560128819707336 0.022338219125716118 16.703742633128616 0.03211674502085383 18.78001924440632 1.49 bq195541 bq G g
454 661428054591 2458270.8082721 0.7534480597062702 0.07972666831082856 16.707432325249016 0.11501711492995485 17.398631571974345 1.68 bi089207 bi B g
455 661428054591 2458318.9336856 0.667464420073552 0.037370948113586426 16.838995322013034 0.06085806906555586 18.221305320974132 1.50 bq086082 bq G g
456 661428054591 2459384.4669315 0.7974875938252193 0.033320841093182105 16.645755783163438 0.04541550967876907 18.34585072282879 2.02 bm311387 bm G g
457 661428054591 2459422.881111 0.7115219500729525 0.0679773960795271 16.76959486633155 0.10384567052627144 17.57172929989312 1.76 bE264221 bE G g
458 661428054591 2459555.5486422 0.7636699236005879 0.048150717600838513 16.6928014056013 0.06853450018809967 17.946133701702426 1.40 bi459492 bi G g
459 661428054591 2458674.8997491 0.7794144304498019 0.034158347447582185 16.670644516617507 0.04763658084769307 18.318898482143073 1.59 bq170694 bq G g
460 661428054591 2458700.7592057 0.8675424742523645 0.02033733257586368 16.554338755463977 0.025480938321968787 18.8819056347087 1.46 bE103985 bE G g
461 661428054591 2458640.9509288 0.5998281496383282 0.11383140322812486 16.954998514464844 0.20627539103013257 17.0119853875931 1.47 bq163867 bq G g
462 661428054591 2458693.6345654 0.8900225247133375 0.01844741456612513 16.526563127481964 0.022529247311278366 18.987801842161854 1.49 bE101051 bE G g
463 661428054591 2458780.7039709 0.7412759188773743 0.039871602776894464 16.725115892679842 0.05846500279703106 18.15098137648922 1.50 bq196014 bq G g
464 661428054591 2459559.5384108 0.87072622337066 0.04550347606714607 16.55036156188665 0.056803503495644767 18.00752917589186 1.48 bE307547 bE G g
465 661428054591 2459566.5288062 0.703172519296414 0.15057353374751534 16.70826900444835 99.999 16.70826900444835 2.12 bE309568 bE G g
466 661428054591 2459565.5310083 0.9065916265022609 0.09781490014495557 16.506536363549284 0.11727501173380418 17.17662807166538 2.13 bE309273 bE G g
467 661428054591 2458694.9370958 0.7603209892716419 0.03685104577134627 16.69757317303157 0.05268233430257349 18.236516069130857 1.48 bq175874 bq G g
468 661428054591 2458572.6618525 1.1587981656395032 0.14542374562366225 16.240046124656043 0.1364079555943538 16.746052295421254 1.63 bm122600 bm G g
469 661428054591 2458725.8340669 1.1329205009771623 0.0754959987818967 16.26456703296858 0.07243303318318736 17.457830773858973 1.50 bq183623 bq B g
470 661428054591 2458362.8090017 0.9691232248889825 0.06860672239537337 16.434118118543665 0.07694844414789435 17.561723931644025 1.50 bq096400 bq G g
471 661428054591 2459042.8579068 0.7964621526556785 0.06109778741201725 16.647152764165728 0.08338203927190664 17.687576903845237 1.50 bq262085 bq G g
472 661428054591 2459439.5473141 0.76534142192231 99.99 16.690427574991954 99.99 99.99 1.36 bi421468 bi B g
473 661428054591 2458756.6009402 0.7805225782542806 0.02194413195370494 16.66910194613265 0.030559420067426877 18.799344596219502 1.39 bi265919 bi G g
474 661428054591 2459437.7599402 0.8545197368676715 0.0320060851215712 16.570760377069455 0.04071201805794794 18.389559221620495 1.46 bi420839 bi B g
475 661428054591 2459567.5304916 0.8318447569184588 0.32317608417613275 15.87904257535846 99.999 15.87904257535846 2.04 bE309854 bE G g
476 661428054591 2459546.5822454 0.8507113742542282 0.028243515832029904 16.575610023569542 0.036086826460243145 18.525343716593234 1.45 bE303761 bE G g
477 661428054591 2458763.5880512 0.6329322166183013 0.08057798264528165 16.89667261708441 0.13837937372319062 17.387099636021187 1.38 bi267975 bi G g
478 661428054591 2458811.3299591 1.0024016959059525 0.032919480309153065 16.397461140420614 0.03569631212760234 18.359008185177313 1.57 bm183013 bm G g
479 661428054591 2458326.3638321 0.6046551464014833 0.10125748500749403 16.946296238194268 0.18202521612330372 17.139072770557465 1.73 bm066093 bm G g
480 661428054591 2459491.5703054 0.7796601768881632 0.02172026609879172 16.670302242031966 0.030281121942409457 18.8104777575239 1.52 bi438888 bi G g
481 661428054591 2459485.7669562 0.27368387534064487 0.1142144162652051 17.00833830023848 99.999 17.00833830023848 1.45 bq372843 bq G g
482 661428054591 2458312.6939195 0.7826441421833441 0.022329638196929742 16.666154774659844 0.031011981765452373 18.780436395607513 2.01 bi105134 bi G g
483 661428054591 2458397.5654535 0.8581754791225553 0.02726008095801737 16.5661253693783 0.03452734726323048 18.563822758230398 1.63 bi137635 bi G g
484 661428054591 2458660.7392706 0.8046591229124567 0.0305284208416427 16.636035773508375 0.041238662667633104 18.44087976164363 1.37 bi230738 bi G g
485 661428054591 2458775.4180891 0.870741310834395 0.0393167743239702 16.550342749011538 0.04907958739689659 18.166195912217262 1.52 bm175736 bm G g
486 661428054591 2459361.7715686 0.7484953961801272 0.06610271186945162 16.714592788673116 0.09599360816088708 17.602092419393003 1.51 bE240910 bE G g
487 661428054591 2459563.5302063 0.7575507966126669 0.0807320218104515 16.701536224234367 0.1158367175012336 17.385026039284565 1.81 bE308712 bE G g
488 661428054591 2459155.6587382 0.4052497825681688 0.1157802290619569 16.993554600320536 99.999 16.993554600320536 1.54 bq287093 bq B g
489 661428054591 2458103.535928 0.22329786367789872 0.15382089620527734 16.685102268061474 99.999 16.685102268061474 2.01 bq025505 bq G g
490 661428054591 2459524.5943529 0.6751410291418103 0.0327998694507356 16.82657936879499 0.0528067921705001 18.36296032357594 1.43 bE296830 bE G g
491 661428054591 2458352.8257237 0.3994125029070798 0.11500769203999925 17.00082339101883 99.999 17.00082339101883 1.49 bq093831 bq B g
492 661428054591 2459497.7215341 0.9434036865433979 0.034714875664360004 16.463321699762826 0.03999725784726763 18.301351576152893 1.64 bi440830 bi G g
493 661428054591 2459462.6842593 0.7109568047504387 0.03941682744537736 16.77045758398945 0.06026298274626991 18.16343644605935 1.40 bi428695 bi G g
494 661428054591 2459084.3196486 0.8288827327563627 0.027805828755368567 16.603832890958532 0.0364632121210964 18.542301001956858 1.58 bm238857 bm G g
495 661428054591 2458813.342811 0.8250680514491143 0.03088448947611582 16.60884119590747 0.04068767078992641 18.428289544444098 1.51 bm183513 bm G g
496 661428054591 2458788.6798365 0.6875953490995067 0.0279576060705944 16.806733296148312 0.04419561925548791 18.536390658246773 1.63 bq198805 bq G g
497 661428054591 2459185.5896463 0.6860607462532731 0.073465099877023 16.809159193822236 0.11639402176504537 17.487437928033096 1.53 bE184786 bE G g
498 661428054591 2459465.72035 0.7799448878037835 0.029825023854763787 16.669905832762193 0.041565121711672016 18.466188612188233 1.54 bq367269 bq G g
499 661428054591 2459481.3282156 0.8864099310522077 0.047585098362662843 16.530979089513437 0.05835103059088811 17.958963183007132 1.53 bm330047 bm G g
500 661428054591 2459492.673783 0.829681302875579 0.03421413978541353 16.602787364178926 0.04482357532531559 18.31712654793304 1.36 bi439334 bi G g
501 661428054591 2459460.6830748 0.7994115426132526 0.02503108441998941 16.643139585536026 0.03403466050486219 18.65644144912601 1.44 bE276439 bE G g
502 661428054591 2458298.7501918 0.8458902995323186 0.09861546727812809 16.58178051077487 0.12671941664489764 17.167778019151932 1.41 bi099731 bi G g
503 661428054591 2458775.718742 0.8823559401696278 0.07375752769308239 16.53595608783081 0.090860413698737 17.483124733927447 1.53 bq194315 bq G g
504 661428054591 2458035.6990934 0.8468828475966469 0.06714401786816901 16.580507279930288 0.08617795049774718 17.58512229724659 1.57 bq003548 bq G g
505 661428054591 2459535.5960403 0.6175654962802262 0.054807021983367 16.923358062940114 0.096464019348142 17.805550099662874 1.45 bE300348 bE G g
506 661428054591 2459501.5331595 0.8159374848161884 0.05153163378665558 16.62092340872914 0.06864820707789412 17.87245583197875 1.46 bE289658 bE G g
507 661428054591 2458724.3714672 0.9474667188030146 0.02579395606974648 16.45865571313329 0.029591444443435533 18.623845721830175 1.52 bm161831 bm G g
508 661428054591 2459188.562348 0.8270197715111567 0.03403341733167921 16.606275891461465 0.04473030295048905 18.322876713300282 1.67 bE185661 bE G g
509 661428054591 2459477.7519383 1.0158874755343177 0.13329508766362944 16.382951606991444 0.14262009163521452 16.84060524990847 1.51 bE282317 bE G g
510 661428054591 2458652.5379437 0.9299334572875151 0.0884134798390776 16.47893593951776 0.10334245721306917 17.28634440101844 1.52 bm144713 bm G g
511 661428054591 2459370.5584828 0.9226353783238077 0.041620943449823374 16.487490363401342 0.04903362366822616 18.104360810363907 1.59 bm308207 bm B g
512 661428054591 2458783.664021 0.683201870225255 0.03697144535524594 16.813693005936283 0.058820614226007345 18.232974538597613 1.43 bi274928 bi G g
513 661428054591 2458625.7926483 0.7478983615480819 0.05584452645313763 16.71545916778831 0.0811615258870559 17.785189079974757 1.50 bE078677 bE G g
514 661428054591 2458979.5693644 0.496367460651526 0.11986594963832545 16.955901035354422 99.999 16.955901035354422 1.55 bm211820 bm G g
515 661428054591 2458345.3773746 0.9454912736734564 0.019547768922150287 16.460921809987845 0.0224725235515172 18.924897620167688 1.54 bm070014 bm G g
516 661428054591 2458748.7808426 0.8038836761455546 0.03637438913647842 16.63708259762198 0.049182961004688185 18.25065133992011 1.52 bE121315 bE G g
517 661428054591 2458690.6842417 0.8036594892744305 0.05053059907799087 16.637385429682013 0.06834307931185522 17.893754493556713 1.59 bm152912 bm G g
518 661428054591 2459549.5713735 0.8618599110931917 0.04153678656314179 16.56147392170962 0.05238517358305506 18.106558374196624 1.39 bi457714 bi G g
519 661428054591 2459477.6901346 0.5800830737093519 0.12701262241025327 16.893023404116825 99.999 16.893023404116825 1.47 bi434003 bi G g
520 661428054591 2458703.7321385 0.8376515356996924 0.027288697846287763 16.59240714968156 0.03541046226222771 18.562683579858522 1.39 bi245753 bi G g
521 661428054591 2459364.7418231 0.7927796417516476 0.1214867504165657 16.652184399481094 0.16656686009042015 16.941318322671066 1.45 bE241754 bE B g
522 661428054591 2458619.5449478 0.9437487257312839 0.09579245834772063 16.46292467667123 0.11032834746748675 17.199312314395524 1.54 bm135523 bm B g
523 661428054591 2458394.5752306 0.7962116673146281 0.018470255409963714 16.647494279173223 0.025214858561114516 18.9864583589852 1.67 bE002253 bE G g
524 661428054591 2458062.6346577 0.8448852301910122 0.0772300670975776 16.583071327067746 0.09935754834663649 17.433174581056893 2.03 bi018045 bi G g
525 661428054591 2459483.3451203 0.8017391442561782 0.028916154811951453 16.63998290181489 0.03920302916683585 18.499789258400703 1.73 bm330817 bm G g
526 661428054591 2459172.5906946 0.7865071329973683 0.03473404562459673 16.66080895807103 0.048002612861447816 18.300752185405994 1.45 bi327423 bi G g
527 661428054591 2459320.8791974 0.8595568677846854 0.02552356964059971 16.564379085669614 0.03227594533729235 18.635287078286296 1.46 bE227555 bE G g
528 661428054591 2459068.8086189 1.2835987172941534 0.1484174531430449 16.12899243620399 0.12568049224434918 16.72392817448181 1.48 bq268206 bq G g
529 661428054591 2458048.5066106 0.8120264661974175 0.024784960528373996 16.626140161444745 0.03317647343875295 18.667170032441845 1.44 bi011632 bi G g
530 661428054591 2459429.6848566 0.8127236128598624 0.02801353628003732 16.62520842747821 0.03746599148191932 18.534220773159788 1.46 bE266929 bE G g
531 661428054591 2458784.6774981 0.7382921057182433 0.03731251225560745 16.729495060535747 0.05493364784017029 18.223004383639356 1.38 bi275300 bi B g
532 661428054591 2459522.5532334 0.8940784787794468 0.0385871298599402 16.52162651935009 0.04691146633315084 18.186534419894905 1.36 bi449013 bi G g
533 661428054591 2459550.5541539 0.8626465466033741 0.039322850262870294 16.560483402122085 0.04954778839015057 18.166028137589915 1.49 bi458000 bi G g
534 661428054591 2459548.5569157 0.748852042118562 0.029510103032369707 16.714075576161097 0.042833827170293645 18.477713796916998 1.49 bE304338 bE G g
535 661428054591 2458827.5683117 0.7760816518711832 0.08843043716615052 16.6752970823726 0.12385299944437296 17.286136181427885 1.46 bi288794 bi G g
536 661428054591 2459436.8581589 0.7334681543390142 0.024044675312415543 16.736612466217338 0.035632789902763674 18.70009331907153 1.48 bE269633 bE G g
537 661428054591 2459075.7538967 0.8167968109484659 0.02823378712800495 16.619780538658883 0.03757225620964814 18.52571777150507 1.45 bq270348 bq G g
538 661428054591 2458825.2873366 0.738786113401803 0.07730380262199023 16.72876881321787 0.11373504576081234 17.43213846729552 1.49 bm186612 bm G g
539 661428054591 2458613.584529 0.9561765789100706 0.026550812610887792 16.44872036814836 0.03018226921828035 18.59244606748191 1.48 bm133126 bm G g
540 661428054591 2458607.8400215 0.7729709027008008 0.031840727797467674 16.67965775758449 0.044774630733770894 18.39518314634628 1.41 bi211026 bi G g
541 661428054591 2458677.9077729 0.6677817859190839 0.11179031359310383 16.838479199078414 0.18196245089261906 17.031630175359386 1.45 bq171250 bq B g
542 661428054591 2459453.595075 0.7580636588094312 0.02975354266748171 16.700801429083345 0.04266238972338449 18.468793903143037 1.52 bE273946 bE G g
543 661428054591 2458450.5781207 0.6639246592009456 0.028404543573290253 16.844768623974108 0.04650302328154159 18.519171073738335 1.43 bE019769 bE G g
544 661428054591 2459416.6060175 1.0519544476735785 0.06555910053924353 16.345073286883192 0.06774047302910786 17.611058145227258 2.15 bE261563 bE G g
545 661428054591 2459134.7450335 0.7922269685674294 0.045219358353214216 16.652941566430325 0.06204216521404819 18.014329622524286 1.45 bq281476 bq B g
546 661428054591 2458034.7253274 0.6690406738391212 0.060045970852917685 16.8364343193166 0.09755364983748495 17.70643093367902 2.47 bi009509 bi G g
547 661428054591 2458365.3285988 0.8416611038626493 0.020971374003725722 16.587222478894404 0.027083313745362346 18.848573397619344 1.99 bm074861 bm G g
548 661428054591 2459403.7613418 0.6974323240583084 0.03227350615411244 16.791310442647507 0.05029864086234644 18.380525238475617 1.44 bi406950 bi G g
549 661428054591 2459432.5711788 0.8867518565933173 0.03466082147323762 16.53056035621284 0.04248630061391545 18.303043482875797 1.45 bE268055 bE G g
550 661428054591 2459564.5306022 0.619224953978145 0.09919342896893009 16.92044449842524 0.1741191853441538 17.16143335285752 2.40 bE308978 bE G g
551 661428054591 2459664.9123254 0.8204120004759097 0.10024105439593628 16.61498561145209 0.1328084764221696 17.15002654598791 1.46 bE336702 bE G g
552 661428054591 2458414.5118946 0.7545146527542578 0.055021373959864124 16.705896426686685 0.0792639891649664 17.801312033633675 1.78 bE008404 bE G g
553 661428054591 2458022.5122659 0.8469105585405636 0.026761141853608082 16.58047175402143 0.03434624515378751 18.583879011148408 1.41 bi005751 bi G g
554 661428054591 2459482.3494622 1.0190160130860617 0.05282966729480856 16.37961310058738 0.05635196176505115 17.845445922340005 1.67 bm330444 bm G g
555 661428054591 2459133.5963164 0.7040154046307706 0.03467888575760942 16.78111021706564 0.053542068529948014 18.302477773882135 1.47 bq281059 bq G g
556 661428054591 2459417.6732354 0.7212484039156817 0.09816679806359122 16.75485345954652 0.1479421525152421 17.172729047167298 2.09 bi412644 bi G g
557 661428054591 2458708.546827 0.7728728881554883 0.07247734501210744 16.67979544024196 0.1019310213187322 17.50213492169738 1.54 bm156872 bm G g
558 661428054591 2459154.2805564 0.888479638904846 0.08004091096393628 16.528446923224916 0.09792119748003499 17.394360554449058 1.62 bm254239 bm G g
559 661428054591 2459412.3951915 0.8992690362813814 0.04237251678914966 16.515341522279225 0.0512161340024786 18.084929960338812 2.23 bm316059 bm G g
560 661428054591 2458729.8409583 0.8677120929171419 0.04831403904805174 16.554126497125146 0.06052152581887959 17.94245724651101 1.52 bq185157 bq G g
561 661428054591 2459128.4777175 0.8948539575803861 0.06826388829075278 16.5206852144178 0.08291842255191646 17.567163056613314 1.56 bm248737 bm G g
562 661428054591 2458610.5895317 0.8567945478670422 0.030911534668977118 16.567873886682793 0.03921534548632993 18.4273391937594 1.50 bm132661 bm G g
563 661428054591 2459541.5358033 0.776235643667042 0.0479227703906501 16.675081669622863 0.06710586951385532 17.951285820324493 1.41 bi455285 bi G g
564 661428054591 2458443.2721359 0.7226379966944378 0.07290719781867441 16.752763639107833 0.10966342001559883 17.495714595221322 1.61 bm090589 bm G g
565 661428054591 2458755.7448156 0.8737082534807931 0.04592998773193096 16.546649526552574 0.057140240474697644 17.99739978790148 1.47 bq188649 bq G g
566 661428054591 2459532.375805 0.49187269445287324 0.09997410510172082 17.152921798136063 99.999 17.152921798136063 1.72 bm340080 bm G g
567 661428054591 2459326.6033252 0.9395009963130687 0.038774238803414206 16.46782250979907 0.044859890418676364 18.181282409652432 1.53 bm298250 bm G g
568 661428054591 2459668.9091429 0.7381950442004455 0.052456848204047495 16.729637809091496 0.07724017346530246 17.853135128779606 1.56 bE338177 bE G g
569 661428054591 2459539.572356 0.8448899273293982 0.07080993440780349 16.583065290935444 0.09109745248326853 17.527405131207043 1.51 bi454656 bi G g
570 661428054591 2459543.5825625 0.7968445208137829 0.0455974809926888 16.646631645453702 0.06219843149484558 18.00528848401317 1.34 bi455979 bi G g
571 661428054591 2459681.8866203 0.7870608377529194 0.03151045770956557 16.660044863559914 0.0435169631971316 18.406503832379375 1.39 bi500160 bi G g
572 661428054591 2459680.6461824 0.8873568943018194 0.032567970636814686 16.52981980254554 0.03989372067858586 18.370663866909915 1.55 bm365689 bm G g
573 661428054591 2458704.6691465 0.7399008239651574 0.026506435470717928 16.72713184488449 0.03893946589835264 18.59426228979737 1.46 bE105407 bE G g
574 661428054591 2459681.6319247 0.7598476279407542 0.06263722683546086 16.69824934216922 0.08960209877468486 17.660559307013393 1.49 bm365913 bm G g
575 661428054591 2459682.6571062 0.6900616110554899 0.0843510844549083 16.80284595287788 0.13286634105582495 17.337413935333977 1.50 bm366352 bm G g
576 661428054591 2459553.6152112 0.8147298626266317 0.06379015085546964 16.62253153484343 0.0851044299168533 17.640756538437074 1.44 bq395919 bq G g
577 661428054591 2459164.6367814 0.7595246480861699 0.03514096674291772 16.6987109419132 0.050290274420559423 18.28810634906908 1.49 bq290527 bq B g
578 661428054591 2458347.7223011 0.8114765292902839 0.025842473213027423 16.6268757146712 0.034615474117700114 18.621805424495722 1.39 bi118982 bi G g
579 661428054591 2458825.2885583 0.6719985123129735 0.10197265420405824 16.83164484327483 0.164940605515103 17.13143130263878 1.48 bm186613 bm G g
580 661428054591 2459687.8660164 0.7165775358971282 0.08667860857701488 16.761907649090052 0.13148036907144303 17.30786078364641 1.49 bE345551 bE G g
581 661428054591 2459719.8058623 0.9814633485666512 0.0808011787375702 16.420380407048544 0.08948614160811602 17.384096370536398 1.50 bi514489 bi G g
582 661428054591 2459724.878852 0.8898944267294218 0.12223865547095258 16.52671940513191 0.14930771536697574 16.934619200541594 1.37 bi516449 bi B g
583 661428054591 2459719.7661159 1.0545698294989905 0.06673215780440996 16.342377266498374 0.06878155633343733 17.591802691140632 1.54 bE356827 bE G g
584 661428054591 2459725.9175849 0.8267438848701076 0.03350691686888001 16.606638144091967 0.04405301627325875 18.339804441020956 1.40 bi516889 bi G g
585 661428054591 2459374.9045361 0.7349274339776519 0.029331502016470598 16.734454473819735 0.04338124546072756 18.484304853857616 1.37 bi395892 bi G g
586 661428054591 2459731.9518206 1.3975045795079792 0.5520977079931109 15.29760075096374 99.999 15.29760075096374 1.46 bq447139 bq B g
587 661428054591 2459733.9485 0.5389034964956869 0.0768405443509725 17.071288118831895 0.15498569105487872 17.438664529408108 1.65 bq447571 bq G g
588 661428054591 2459732.9492692 0.9976431085586821 0.1711544974875087 16.40262760499569 0.18647700332216377 16.569169822106783 1.56 bq447407 bq G g
589 661428054591 2459736.9398223 0.6725473881204644 0.05056600091947155 16.830758396231232 0.08172367545919555 17.8929940908808 1.50 bq448348 bq G g
590 661428054591 2459738.7352959 0.8641298835642198 0.022963170447259762 16.558618061583203 0.028884509553709126 18.75006098785326 1.50 bE361295 bE G g
591 661428054591 2459739.7242725 0.7678902345715689 0.04155451695727512 16.68681776076732 0.05882084597628743 18.1060950156907 1.47 bE361683 bE G g
592 661428054591 2459743.7086018 0.5965979085744447 0.0928864167556683 16.960861305852596 0.16923206572212457 17.232760087474443 1.50 bE363356 bE G g
593 661428054591 2458776.4386308 0.8928150374917835 0.036853791578178544 16.52316188132293 0.044867601266275106 18.236435172896698 1.46 bm176090 bm G g
594 661428054591 2459703.8516512 0.8521331240063453 0.023455418613036832 16.57379700360178 0.029919057848256967 18.727032640733746 1.48 bE351239 bE G g
595 661428054591 2458680.4953959 0.9460735627894175 0.24819951411989866 16.165638293991222 99.999 16.165638293991222 1.78 bm151026 bm G g
596 661428054591 2459713.7992292 0.6205732027389471 0.13735043045189466 16.808065549382555 99.999 16.808065549382555 1.53 bE354787 bE G g
597 661428054591 2459689.9118462 0.8832324437777984 0.06260251991323891 16.534878088238354 0.07704225289318938 17.661161073847886 1.53 bE346156 bE G g
598 661428054591 2459715.8489861 0.6821784469906901 0.1482180842658514 16.72538762227795 99.999 16.72538762227795 1.58 bE355586 bE G g
599 661428054591 2459505.5351387 0.7762487365178881 0.07741643034932906 16.675063356546907 0.10840377561893426 17.43055775583351 1.48 bi443489 bi G g
600 661428054591 2459750.9236639 1.3072831934920368 0.12433707244261069 16.10914142753037 0.10338157214767991 16.916139017578015 1.43 bq451164 bq B g
601 661428054591 2459740.7667112 0.7833229316051694 0.04969001123701644 16.66521352077376 0.06895097743236968 17.911967874047377 1.44 bE362138 bE G g
602 661428054591 2458265.7820172 0.627820344567618 0.07731056451959543 16.905477159935035 0.13384915450897347 17.4320435002212 1.41 bi088153 bi G g
603 661428054591 2459418.6914692 0.34632558892964865 0.16143778626501515 16.6326276273958 99.999 16.6326276273958 1.51 bi413083 bi B g
604 661428054591 2459717.7872055 0.632085887838788 0.07395624771060286 16.89812538670234 0.12717769423274478 17.48020344040279 1.56 bE356290 bE G g
605 661428054591 2458456.5551313 0.6690406546821673 0.035983860898376525 16.836434350404993 0.058461159283997345 18.262371213299794 1.71 bq118742 bq G g
606 661428054591 2459700.5824664 0.9273784918918103 0.045944155929200814 16.481923073890155 0.05384996563934801 17.997064918388883 1.49 bm370601 bm G g
607 661428054591 2459715.8463891 0.6503570654209971 0.08427856091942203 16.86718596542596 0.1408566713653739 17.338347833200565 1.55 bE355584 bE G g
608 661428054591 2459714.7913709 1.4830707567931913 0.1457083301820129 15.972160943376503 0.10679100713004135 16.74392965842995 1.54 bi512641 bi G g
609 661428054591 2459754.9472693 0.7542185733837022 0.0939094904086966 16.706322564443383 0.13533945815598608 17.22086690170724 1.49 bq452081 bq G g
610 661428054591 2459444.6140301 0.8143049838229119 0.041128977155811354 16.62309789020568 0.05490008146835929 18.117270838709278 1.41 bi423045 bi G g
611 661428054591 2459711.8578472 0.6802363369741934 0.03363098278501879 16.81841605370991 0.05373928748540145 18.335791714648746 1.41 bi511476 bi G g
612 661428054591 2459714.7926144 0.9179916778866113 0.19416077369345522 16.43223687667327 99.999 16.43223687667327 1.52 bi512642 bi G g
613 661428054591 2459713.7966284 0.7743930153686631 0.06604061436202767 16.67766205427586 0.09269618275972077 17.603112849541404 1.44 bE354785 bE G g
614 661428054591 2459715.8311162 0.870375248516603 0.1130339151559431 16.550799291814883 0.1411608975161662 17.01961868514163 1.50 bi513100 bi G g
615 661428054591 2459670.9106577 0.8013348161488575 0.05990493891972838 16.64053059167184 0.08125700110737145 17.70898403722345 1.40 bi496007 bi G g
616 661428054591 2458453.5699304 0.8124456266617216 0.030257310680186774 16.625579859173257 0.040480716610232684 18.45056479996537 1.42 bi155284 bi G g
617 661428054591 2459691.8586581 0.7617037246567541 0.05171552271841601 16.695600424141883 0.07379841121199907 17.868588314678753 1.51 bE346915 bE G g
618 661428054591 2459524.6632056 0.7095659771427778 0.03947791123171917 16.772583663753878 0.06047467671821753 18.16175519601102 1.53 bq385757 bq G g
619 661428054591 2459545.5356732 0.7754051116771715 0.032493241106356596 16.676243973118208 0.0455487587083392 18.37315802864745 1.45 bE303418 bE G g
620 661428054591 2459758.9409613 0.7457994676571741 0.03411719969269653 16.718510449704375 0.049723704987275914 18.320207167741476 1.48 bi526194 bi G g
621 661428054591 2459706.8089756 0.7887140584317297 0.0247382039128634 16.657766667342468 0.03409264966401872 18.669220198901463 1.48 bE352391 bE G g
622 661428054591 2459702.5844132 0.8777007207019082 0.05515843514706846 16.541699484865365 0.06830895702590323 17.798610769741813 1.59 bm371405 bm B g
623 661428054591 2459736.9385704 0.7438814550332729 0.041585938278373834 16.721306292580465 0.06076520192629019 18.10527434980799 1.50 bq448347 bq G g
624 661428054591 2459760.8865837 0.896179612012746 0.03937742143109994 16.519077973437525 0.047760007547678444 18.164522427347663 1.44 bq453437 bq G g
625 661428054591 2459726.8815205 0.7786305945671078 0.02626694780047416 16.67173696138587 0.036668261454303755 18.60411658387584 1.39 bi517308 bi G g
626 661428054591 2459711.6547125 0.981645253239548 0.048856780715581645 16.42017919506306 0.05409815435334351 17.930328494120033 1.61 bm373462 bm G g
627 661428054591 2459696.8519958 0.7383558149588945 0.02874796463628899 16.729401373437792 0.042320771388358096 18.506122856575406 1.53 bE348614 bE G g
628 661428054591 2459440.6468649 0.8343835270119986 0.04388945399907854 16.59665131889427 0.05717506004787407 18.046740166202746 1.39 bi421977 bi B g
629 661428054591 2459727.8695994 0.7746136102676066 0.02439104780508337 16.677352813674787 0.034226107226062216 18.68456446795681 1.42 bi517728 bi G g
630 661428054591 2459723.7753244 0.6417540458734219 0.048453519098117875 16.88164408398795 0.08206706124186808 17.939327299905425 1.53 bE358239 bE B g
631 661428054591 2459762.876267 0.7645633408556397 0.033127173295160836 16.69153194550927 0.04709589792738468 18.35217966244721 1.74 bq454010 bq G g
632 661428054591 2459713.7979416 0.8087095642467033 0.10131023984265922 16.630584173912748 0.13616733470749579 17.13850725267102 1.50 bE354786 bE G g
633 661428054591 2459746.780993 0.4790873330553159 0.09891402992552177 17.164495871147608 99.999 17.164495871147608 1.48 bi522532 bi G g
634 661428054591 2459726.8069875 0.8910449470110362 0.029764025268069757 16.525316592979795 0.03630815873751427 18.46841145004588 1.45 bE359489 bE G g
635 661428054591 2459740.7450383 0.7262984314716255 0.045242337601324345 16.74727785665347 0.06770833005220964 18.01377802105574 1.44 bE362122 bE G g
636 661428054591 2459765.6616291 0.8078217821416647 0.032570935745587455 16.63177672396436 0.04382549692328539 18.37056502196066 1.45 bE370748 bE G g
637 661428054591 2459704.8242655 0.8048452512450419 0.03392035801039449 16.635784657359125 0.045809991799155285 18.326489543082037 1.45 bi508909 bi G g
638 661428054591 2459766.7887751 0.7304127550734181 0.029213275889098455 16.741144750774833 0.043473447757396186 18.48868996098134 1.61 bE371264 bE G g
639 661428054591 2459766.7597604 0.7186850504667738 0.041708076736465614 16.758719094554277 0.06308029642254723 18.102090201680035 1.40 bi529464 bi G g
640 661428054591 2459766.7585201 0.8118437677896249 0.028970582849349186 16.626384469484364 0.038787960462417344 18.497747529653886 1.43 bi529463 bi G g
641 661428054591 2459715.8476896 0.4171049681564513 0.1329098573934545 16.843747631379813 99.999 16.843747631379813 1.50 bE355585 bE G g
642 661428054591 2459769.7866468 0.7570712092275341 0.025393668827676994 16.702223795658494 0.036458676022418354 18.64082698287865 1.41 bi530435 bi G g
643 661428054591 2459769.8133489 0.7932918465784657 0.023505669544404244 16.65148314566227 0.0322071138375275 18.724709045669286 1.44 bE372194 bE G g
644 661428054591 2458243.5883016 0.7988549626175454 0.060682562804987863 16.643895778667314 0.08256731257023459 17.6949808263202 1.67 bm047269 bm G g
645 661428054591 2458346.3555643 0.8907561576878191 0.019920344516019067 16.52566853913774 0.024308053556634245 18.904398498598464 1.51 bm070419 bm G g
646 661428054591 2458348.2904216 0.7981745823821609 0.032884216632237354 16.644820888038726 0.04478182407665158 18.360171860052283 1.44 bm070820 bm G g
647 661428054591 2458393.2899898 0.952183196035803 0.02976179478822265 16.453264340151502 0.033974320360200816 18.468492816845124 1.51 bm079511 bm B g
648 661428054591 2458713.6049686 0.6923029765212197 0.30504255281475207 15.941739544521257 99.999 15.941739544521257 1.56 bm158790 bm G g
649 661428054591 2458788.4082239 0.8469437370464803 0.023667545805846082 16.580429220132665 0.030374618929158194 18.717257545647538 1.54 bm177962 bm G g
650 661428054591 2458989.5503763 0.8596793792624315 0.027319546879537648 16.5642243481839 0.034542133227795396 18.56145688172851 1.52 bm215032 bm G g
651 661428054591 2459109.534291 0.9621912775258209 0.061376984936841114 16.441912083257193 0.06933560469736591 17.6826267352469 1.61 bm243962 bm G g
652 661428054591 2458446.3297151 0.7913929677448276 0.08539987564460938 16.654085155180187 0.11729438543298906 17.323997515717892 1.56 bm091196 bm G g
653 661428054591 2458599.6461576 0.8540138289164728 0.04817351522802465 16.571403364255595 0.061313429337128494 17.945619766445354 1.44 bm129521 bm G g
654 661428054591 2459017.4720377 0.9277260379205094 0.02829419537510719 16.481516257665483 0.03315047646961597 18.523397241282424 1.66 bm222520 bm G g
655 661428054591 2459022.4491297 0.8589415841572963 0.0286144561173799 16.565156550133715 0.03621045978734273 18.511176872513456 1.58 bm224053 bm G g
656 661428054591 2459741.4673811 0.8944328339826199 0.10199683276921562 16.52119628860375 0.12395131122544262 17.131173896062112 1.69 bm381772 bm G g
657 661428054591 2458361.3321292 0.9684406084748406 0.042840431538725174 16.43488314251108 0.04808316178363332 18.07300601918788 2.30 bm073980 bm B g
658 661428054591 2458627.5819874 0.8411470761241118 0.07838743077621706 16.58788577320207 0.10129468617687008 17.41702453579471 1.49 bm138218 bm G g
659 661428054591 2458725.4883791 0.8654079283252665 0.024717207418211772 16.557013448245005 0.031044931439900357 18.670142106339792 1.49 bm162171 bm G g
660 661428054591 2458999.5211223 0.7996138305156678 0.027547581433458788 16.642864879075077 0.03744685516248221 18.55243192254806 1.50 bm217068 bm G g
661 661428054591 2459778.4489285 0.7395707316031991 0.117262342403767 16.72761633305581 0.17234195781907571 16.979744198203708 1.74 bm388663 bm G g
662 661428054591 2458997.5181246 0.8918877570725521 0.02443205725554787 16.524290116250096 0.02977570188942655 18.682740517779017 1.70 bm216878 bm G g
663 661428054591 2459020.4797115 0.8424552099894091 0.026926812963386042 16.58619857118797 0.03474163921494433 18.577178227200733 1.76 bm223711 bm G g
664 661428054591 2459047.3665135 0.8515132621901209 0.027642855110420927 16.57458708122701 0.03528609943723137 18.548683367919068 1.60 bm229229 bm G g
665 661428054591 2459785.418107 0.7980175055195247 0.047542508388727735 16.645034576652446 0.06475627313378601 17.9599353819582 1.64 bm390110 bm G g
666 661428054591 2459783.5886681 0.7592901822815651 0.025688129963745795 16.699046161203622 0.036773661831731266 18.628309386975875 1.50 bE373785 bE G g
667 661428054591 2459785.4168629 0.8827848735015461 0.022601393854020605 16.535428414963636 0.027828673992315943 18.767302552905182 1.55 bm390109 bm G g
668 661428054591 2459786.8322596 0.6411537254068823 0.03642229905461423 16.882660197113374 0.06174721275934574 18.249222221604708 1.51 bq459230 bq G g
669 661428054591 2459788.8120713 0.8056988276074969 0.025888256196962924 16.63463379305285 0.034925468358073204 18.61988361682876 1.48 bq459690 bq G g
670 661428054591 2459789.8800307 0.7896013137724226 0.04437426837230975 16.656545966632464 0.06108513190567728 18.034812597382228 1.46 bi534828 bi B g
671 661428054591 2459791.8519684 0.6653287085599549 0.03238801537862759 16.84247496374912 0.05291273935583396 18.37667976939741 1.51 bq460565 bq G g
672 661428054591 2459792.7398568 0.7618370407278654 0.02095152275965928 16.695410411391663 0.02989273701134246 18.849601628856558 1.48 bi535853 bi G g
673 661428054591 2459793.7832246 0.907919255984467 0.02628306513363051 16.504947554502756 0.03146595787013773 18.603450583176556 1.41 bi536308 bi G g
674 661428054591 2459795.5624938 0.8668142602295091 0.03695198744198538 16.55525050373372 0.046336574724386494 18.233546107329868 1.44 bE378292 bE G g
675 661428054591 2459796.5769439 0.7982521614723382 0.03597775566112573 16.64471536434047 0.04898985313270921 18.262555441432916 1.45 bE378663 bE G g
676 661428054591 2459797.5785493 0.6367923857700578 0.041626572332907355 16.89007096770466 0.07105341597353439 18.104213983588153 1.41 bi537658 bi G g
677 661428054591 2459799.6054603 1.039604785993504 0.08965797963581491 16.357894946831127 0.09374170550587684 17.271168240958232 1.52 bE379370 bE G g
678 661428054591 2459799.7373279 0.9177440643504787 0.06333436871300052 16.49326166148374 0.0750118772727214 17.648541996280297 1.49 bi538066 bi G g
679 661428054591 2459799.7360874 0.759191678284053 0.04272160711498225 16.699187024732307 0.061165751418355875 18.076021657053367 1.47 bi538065 bi G g
680 661428054591 2458086.5961341 0.57371575026265 0.09346045298145582 17.00332369036738 0.17706930452297936 17.22607090739345 2.10 bq020918 bq G g
681 661428054591 2458350.7622933 0.7398619635952057 0.1459111815850315 16.727188870390137 0.21436310855586227 16.742419175495307 1.78 bq093037 bq B g
682 661428054591 2458448.592446 0.6973936905318872 0.04470262248825067 16.791370587522817 0.06967342508560406 18.02680810681326 1.67 bq115629 bq B g
683 661428054591 2458440.6085395 0.49904996431596144 0.08201812165758676 17.154705550105383 0.17863969263819862 17.36786606382474 1.56 bq113036 bq B g
684 661428054591 2458670.9294884 0.7539328255712158 0.05498559691992324 16.706733990974396 0.07927357868858845 17.80201825122374 1.52 bq169899 bq B g
685 661428054591 2458675.9067487 0.8989517470744305 0.05073186539585804 16.5157246703177 0.06134181521030395 17.889438532711882 1.45 bq170981 bq G g
686 661428054591 2458688.8043803 0.8319389844945811 0.06350464978648158 16.59983693296472 0.08297098048375595 17.645626798106726 1.48 bq174112 bq G g
687 661428054591 2458693.9439376 0.7420929166185339 0.032633916909029975 16.72391990676555 0.04779947095546378 18.36846760289294 1.53 bq175623 bq G g
688 661428054591 2458715.8768858 1.0763801797905068 0.12271196497375617 16.32015139185799 0.12391771339528745 16.93042333525349 1.46 bq180527 bq G g
689 661428054591 2458760.6837259 0.7726741977295639 0.03919604932241227 16.68007459756059 0.05513889497357874 18.169534872713818 1.54 bq189668 bq G g
690 661428054591 2458786.6842279 0.786480350469781 0.03148295166573594 16.6608459307236 0.04351106752537279 18.40745200488915 1.53 bq198204 bq G g
691 661428054591 2458789.6758817 0.8452838665355963 0.029900212163595754 16.582559172490182 0.03844889497986821 18.463454936521412 1.50 bq199243 bq G g
692 661428054591 2458806.6272334 0.7616504046499947 0.0370329161688974 16.695676429399867 0.0528499289215231 18.231170831305437 1.53 bq205014 bq G g
693 661428054591 2458824.5625983 1.0299045488844465 0.07107389388885893 16.368073181426293 0.07501106056048494 17.523365337535736 1.55 bq210842 bq G g
694 661428054591 2459057.806866 0.7764952506056891 0.026152332139420732 16.674718612951597 0.03660865659572002 18.60886455337466 1.47 bq264830 bq G g
695 661428054591 2459069.9186871 1.5485232260934985 0.1759197083253202 15.925271313115449 0.12348350418291167 16.53935437070827 1.46 bq268630 bq G g
696 661428054591 2459125.7450597 0.23945742566938244 0.22500935330179703 16.272139182797897 99.999 16.272139182797897 1.53 bq278227 bq B g
697 661428054591 2459144.5725164 0.92179325689452 0.07641593945762049 16.488481805163474 0.09010784483075006 17.444680719699562 1.51 bq284822 bq G g
698 661428054591 2459158.654093 -0.2425316854633589 0.17293221091614577 16.557950876663426 99.999 16.557950876663426 1.43 bq288704 bq B g
699 661428054591 2459165.6362246 0.7263831905633579 0.02760342291863119 16.747151158534233 0.04130563723598794 18.550233262936676 1.58 bq290954 bq G g
700 661428054591 2459460.7799841 0.6559060423740406 0.04859980177005149 16.85796154290176 0.08053877853904817 17.936054366802313 1.65 bq365688 bq G g
701 661428054591 2459388.9315361 1.2151371362916388 0.10178022701263076 16.188502387993996 0.09104378282198786 17.133482073448796 1.55 bq353482 bq B g
702 661428054591 2459472.7446183 0.821953458719842 0.14335139893966864 16.612947554081103 0.18956880870186824 16.761635772686326 1.52 bq369523 bq B g
703 661428054591 2459494.74608 0.7419478701759388 0.03605743391643478 16.724132141059915 0.05282428123063776 18.260153570838597 1.46 bq375163 bq G g
704 661428054591 2459511.6855644 0.45909241476525126 0.09637178221120137 17.192765885188923 99.999 17.192765885188923 1.49 bq381465 bq G g
705 661428054591 2459534.6180498 0.6916132901485307 0.10114319944421549 16.800407296901312 0.15895914932727986 17.14029889276408 1.58 bq389736 bq G g
706 661428054591 2459742.936836 0.8505941602712564 0.03355027193654516 16.57575963040104 0.0428731921647798 18.338400499876947 1.58 bq449913 bq G g
707 661428054591 2459771.8435882 -1.083938269711748 0.36233125743302874 15.75487610850373 99.999 15.75487610850373 1.60 bq455828 bq G g
708 661428054591 2459801.4197591 1.239586927163099 0.18459886642557996 16.16687315361191 0.1618691980127135 16.487068036925294 1.52 bm393886 bm B g
709 661428054591 2459805.7372869 1.049522814172011 0.06885658440679843 16.34758591336321 0.07131251696009717 17.557776921535297 1.47 bE381850 bE G g
710 661428054591 2459806.636166 0.7344563466804855 0.07235545910172175 16.735150652120318 0.10708225003365614 17.503962352683157 1.53 bE382169 bE B g
711 661428054591 2459806.6348818 0.742547146194138 0.06391898830594572 16.723255538986116 0.09356599316045341 17.638565880307443 1.48 bE382168 bE B g
712 661428054591 2459807.5299638 0.720551520920268 0.026705919755229405 16.75590302425309 0.0402860486782604 18.58612176214416 1.50 bi541170 bi G g
713 661428054591 2459810.865106 0.8134419692027159 0.0313823396478406 16.624249182554212 0.04193444651139219 18.410927315396684 1.49 bE383674 bE G g
714 661428054591 2459809.520395 0.8981937781848768 0.024606000533694952 16.516640516366554 0.029777152106381155 18.67503803871515 1.55 bE383033 bE G g
715 661428054591 2459813.5135379 0.7848440883760265 0.02154798496972416 16.663107143740955 0.02984251667314191 18.81912395158616 1.47 bE384609 bE U g
716 661428054591 2459814.6998556 0.772169636131172 0.02361825746265664 16.680783822405687 0.03324660512393872 18.719520980097425 1.48 bE385142 bE G g
717 661428054591 2459817.6960597 0.8086389978911989 0.0351324776174057 16.630678917184362 0.047224380435126154 18.288368665824542 1.45 bE386235 bE G g
718 661428054591 2459685.8875172 0.44517078363493306 0.08959283675768377 17.271957392001514 99.999 17.271957392001514 1.43 bi502030 bi G g
719 661428054591 2459819.8320105 0.805089970235997 0.04110466811707901 16.635454581630643 0.05549564487890058 18.117912746389177 1.43 bE387081 bE G g
720 661428054591 2459819.8294275 0.7744383822499233 0.02000060403032791 16.67759844959226 0.02807168070147521 18.9000328318976 1.48 bE387079 bE G g
721 661428054591 2459820.7752033 0.7830102712594179 0.02026407733820216 16.665646974729867 0.028130117609258664 18.885823525747018 1.52 bE387439 bE G g
722 661428054591 2459726.8056852 0.8825997947296251 0.02322940926503733 16.53565606701903 0.02860793538311956 18.737545197380324 1.46 bE359488 bE G g
723 661428054591 2459822.4961693 0.7235546312784165 0.031449709326204486 16.751387303108906 0.047245177048371466 18.408599021854528 1.47 bi545938 bi G g
724 661428054591 2459825.4906654 0.7872652039470237 0.04367483348962897 16.659762980682626 0.060300702811980626 18.052062466667852 1.61 bE389196 bE G g
725 661428054591 2459826.5739413 0.7561749523145462 0.03915027628152766 16.703509903256467 0.056276193758919714 18.170803533444538 1.53 bE389609 bE G g
726 661428054591 2459848.7273463 0.7092094886762349 0.0354586250773512 16.77312927854942 0.05434499170572234 18.278335882327884 1.49 bq471841 bq G g
727 661428054591 2459849.5137278 0.9021792820262668 0.03219882566528285 16.511833498333502 0.03879353499518902 18.38304052974824 1.55 bm404333 bm G g
728 661428054591 2459851.7593075 0.8299041466100077 0.027192398371918693 16.60249578592726 0.035614901880921764 18.566521826221695 1.40 bi555901 bi G g
729 661428054591 2459846.7492412 0.7749407524392371 0.02902551886176824 16.67689437205613 0.040712114989893904 18.49569063156219 1.39 bi554150 bi G g
730 661428054591 2459853.5090575 0.8582462938050155 0.02753205304194365 16.56603578060026 0.03486894709225184 18.553044117508207 1.55 bE399253 bE G g
731 661428054591 2459860.3682978 1.2415474574216572 0.14314416705714053 16.16515731013444 0.12532061098557923 16.76320647201704 1.61 bm407404 bm G g
732 661428054591 2459854.6544839 0.778066258049032 0.027329627341170244 16.67252416746926 0.03817941771395134 18.56105633689191 1.56 bE399705 bE G g
733 661428054591 2459855.6649586 0.7254613653318153 0.043020747312036776 16.748529900023847 0.06445785274798395 18.068445735860593 1.40 bi557326 bi G g
734 661428054591 2459862.7211556 0.47258095158183056 0.12297084903927942 16.928135182474588 99.999 16.928135182474588 1.76 bi559618 bi G g
735 661428054591 2459866.6283879 0.8156230549217658 0.028847116417487988 16.62134188897078 0.038443691769311394 18.50238459341148 1.44 bi560952 bi G g
736 661428054591 2459865.6755124 0.7563215359076285 0.05629977480018315 16.703299455013088 0.08091189327045341 17.77637396726379 1.48 bE403261 bE G g
737 661428054591 2459864.6191016 2.176696721946329 0.37328810872570567 15.555570814218365 0.18640536376802425 15.72253022273052 1.51 bq474722 bq G g
738 661428054591 2459867.6328084 0.8248307562927667 0.027507258035684275 16.609153505902515 0.03624888292409365 18.554022357870853 1.44 bE403910 bE G g
739 661428054591 2459873.3422734 0.9012925117257194 0.02816076504053146 16.512901215279822 0.03396181241910067 18.528529488785455 2.22 bm409734 bm G g
740 661428054591 2459877.6416907 0.8264342356756917 0.0232034843075816 16.607044872611905 0.03051807089595772 18.738757599437385 1.55 bE407264 bE G g
741 661428054591 2459881.6756357 0.779358682140051 0.05570619987749231 16.670722177641796 0.077692362510004 17.787881778681044 1.46 bE408573 bE G g
742 661428054591 2459888.655503 0.7157021117325333 0.06651286880173499 16.763234875696888 0.10101492693463382 17.595376411384176 1.47 bE410786 bE B g
743 661428054591 2459889.6548166 0.5200150177778029 0.11511758878326038 16.99978640037106 99.999 16.99978640037106 1.47 bE411108 bE G g
744 661428054591 2459889.6522462 0.7453540139859943 0.08165633193165923 16.71915913570308 0.11908016978369691 17.372665943526016 1.47 bE411106 bE G g
745 661428054591 2459891.6242668 1.393403613598112 0.4235534021441638 15.585370175162524 99.999 15.585370175162524 1.45 bq481729 bq G g
746 661428054591 2458422.6663287 0.7833190684007437 0.027494859537964045 16.665218875437954 0.03815267378860986 18.55451184804619 1.44 bE010545 bE G g
747 661428054591 2458423.6651878 0.817734277564525 0.027897322951630013 16.618535115351165 0.037081944530500933 18.538734286333135 1.44 bE010874 bE G g
748 661428054591 2458427.6537727 0.7303872246147605 0.02922456380416335 16.74118270168348 0.043491765944662336 18.48827051706353 1.46 bE012211 bE G g
749 661428054591 2458452.571767 0.756227170707338 0.028864504111395916 16.703434929281265 0.04148814298923112 18.5017303595088 1.56 bE020426 bE G g
750 661428054591 2458454.5692505 0.7413585576535093 0.02595577483152611 16.72499485959626 0.038055537956176895 18.617055616535097 2.29 bE021085 bE G g
751 661428054591 2458593.8762128 0.5487230953729674 0.09591105105516336 17.05168252294953 0.18998861781169418 17.197968985700946 1.53 bE069071 bE G g
752 661428054591 2458605.8424567 0.7542410154945831 0.01971371535968145 16.70629025835779 0.028409952571809602 18.915719407396544 1.49 bE073605 bE G g
753 661428054591 2458618.8154589 0.6982162624410073 0.04264815487486534 16.790090722465585 0.06639302544932069 18.07788999484033 1.43 bE076074 bE G g
754 661428054591 2458621.8012827 0.7694526958210295 0.07951145140559293 16.6846108083722 0.11232073281130628 17.40156640853967 1.49 bE077284 bE G g
755 661428054591 2458653.7097848 0.7299122228000487 0.07912739286086233 16.741889031726487 0.11783339562172196 17.406823470053848 1.52 bE088250 bE G g
756 661428054591 2458659.8712685 0.8087732079841383 0.02716928520351674 16.630498732124853 0.036514354644067486 18.567445079645882 1.49 bE090583 bE G g
757 661428054591 2458701.8225814 0.8376032876385562 0.02765899489959174 16.592469689023122 0.03589303592112201 18.548049625867606 1.50 bE104458 bE G g
758 661428054591 2459298.9129197 0.47337997151265754 0.11761369749550732 16.97649585300386 99.999 16.97649585300386 1.47 bE219474 bE G g
759 661428054591 2459357.8000709 0.8892611355214328 0.0743377629621504 16.52749234172756 0.09086410395730095 17.47461689198749 1.48 bE239285 bE G g
760 661428054591 2459493.6939758 0.7122026871462217 0.03040222287269717 16.768556602437855 0.04639956437016381 18.445377265409334 1.45 bE287380 bE G g
761 661428054591 2459497.6564128 0.7367485060834073 0.03516283144859382 16.73176746253956 0.05187722628586628 18.287431014195718 1.46 bE288391 bE G g
762 661428054591 2459506.6589527 0.7775532831458793 0.08120555424281957 16.673240223586998 0.11351878861414748 17.378676274345633 1.49 bE291420 bE G g
763 661428054591 2459509.6823376 0.8833514066962308 0.059413463914481594 16.534731859857825 0.07310777069172217 17.717928428232714 1.52 bE292415 bE G g
764 661428054591 2459833.6580621 1.0170195224341692 0.10625063370960373 16.38174239827415 0.11355713110909808 17.086811788971293 1.55 bE392262 bE G g
765 661428054591 2459837.7497049 0.7279475395355399 0.03680053660608479 16.744815416139634 0.054949815879596846 18.23800523300822 1.50 bE393752 bE G g
766 661428054591 2459850.6283978 0.6933048057686282 0.025196651969886245 16.79775509578082 0.039503065544592306 18.649283518179026 1.45 bE398380 bE G g
767 661428054591 2459868.6411557 0.7519964337641665 0.021007485369122652 16.709526169740016 0.030364802547013497 18.846705437075798 1.45 bE404252 bE G g
768 661428054591 2459869.6616693 0.7940511869388519 0.019849295905593284 16.650444374122046 0.02717119751396569 18.908277846255924 1.46 bE404610 bE G g
769 661428054591 2459870.6418253 0.7280038730475779 0.023402082289826327 16.74473139776778 0.03494081131837621 18.72950435608487 1.47 bE404932 bE G g
770 661428054591 2459882.5124179 0.7657195964273483 0.02943709025063237 16.6898912178445 0.04178662447485644 18.480403413051928 1.74 bE408780 bE G g
771 661428054591 2459898.5646597 0.7606182042806946 0.02547446485039459 16.69714883377935 0.036404119111422426 18.637377937887514 1.64 bi570999 bi G g
772 661428054591 2456839.7665426 1.0456036947841265 0.05172568606632597 16.411363631481134 0.05377139741537706 17.928090744518418 2.16 be016652 be G V
773 661428054591 2457249.6710317 1.0543709284003893 0.05403535219701297 16.402297847396873 0.05570532807094837 17.88066142742438 1.66 be136273 be G V
774 661428054591 2458011.7629679 0.9455443146495975 0.04733629372048327 16.52057668537505 0.05441573956637426 18.02437076601847 1.43 be345880 be G V
775 661428054591 2457611.7422733 4.545274529087771 0.10033352097498512 14.815881106487097 0.02399374873286206 17.20874126096846 1.45 be223800 be G V
776 661428054591 2458319.6357209 0.838935301564934 0.06018421514672834 16.650460230862315 0.0779769608424613 17.763649890348855 1.47 be423701 be G V
777 661428054591 2459915.5463001 0.6405657464304144 0.05174428406180646 16.88365634349516 0.08780330096812711 17.867984655468618 1.46 bE416887 bE G g
778 661428054591 2459916.5792024 1.0827384265192737 0.10970385278209487 16.31375674673973 0.11013123328849068 17.05208591095068 1.46 bE417198 bE G g
779 661428054591 2459918.5525334 0.4782706499992541 0.07424652580805481 17.200881296353984 0.16873865340401653 17.475950269758325 1.50 bE417773 bE G g
780 661428054591 2459919.5628118 0.8647296261004179 0.06559466098434288 16.557864776301706 0.08245183511258483 17.610469381882623 1.49 bi577485 bi G g
781 661428054591 2459828.4794167 0.8341997472486063 0.08469768320624377 16.596890487471235 0.11036049751976867 17.3329617840955 1.67 bi548319 bi G g
782 661428054591 2459907.5797702 0.8636500325986287 0.040120783919305576 16.55922113790647 0.050494466615324786 18.144217086182984 1.58 bq485557 bq G g
783 661428054591 2459909.3304469 0.9451013827015963 0.03472936624497018 16.46136962591332 0.039942075873309786 18.300898465922522 1.48 bm416905 bm G g
784 661428054591 2459917.5695794 0.5519320936479872 0.07806774669166022 17.045351502090163 0.1537439974601266 17.421461500724224 1.49 bE417489 bE G g
785 661428054591 2459839.663799 0.7803170649978352 0.02707405355557149 16.66938786042927 0.037713283999786115 18.57125740228716 1.48 bq469030 bq G g
786 661428054591 2459847.7289675 0.7555943910370241 0.03247754842722727 16.704343808814674 0.04672041440728924 18.37368251389179 1.46 bq471543 bq G g
787 661428054591 2459874.700411 0.9801452554709542 0.04882087036667473 16.421839517298856 0.05414112157951503 17.93112681732413 1.56 bq476234 bq G g
788 661428054591 2459880.7247259 0.7051225643134861 0.04188138485307158 16.77940409087243 0.06456075398726523 18.097588027295302 1.72 bq477805 bq G g
789 661428054591 2459890.6249244 0.40948186040887663 0.15128569774204995 16.703145929938476 99.999 16.703145929938476 1.57 bq481304 bq G g
790 661428054591 2459896.6381612 0.7233036517219303 0.0459815477415623 16.751763978001073 0.06909953112826922 17.996181647550365 1.59 bq483305 bq G g
791 661428054591 2459901.6176228 0.6672729478690412 0.03488235681571473 16.839306826449874 0.056821732928867115 18.296126060879665 1.61 bq484509 bq G g
792 661428054591 2457528.832542 0.7470034516761416 0.08489656931936035 16.776474883109557 0.12353206600036408 17.390131041912017 1.47 be202557 be G V
793 661428054591 2458335.784405 1.0748032236376264 0.04820006308212069 16.38145900368056 0.04874508353076219 18.00473737711514 1.40 be430160 be G V
794 661428054591 2457355.571309 1.148655115496346 0.044865629502272145 16.309307276922848 0.04245572751256456 18.082571979566367 2.26 be164573 be G V
795 661428054591 2457616.6865663 3.8994385481445057 0.1327598695905406 14.982276202973758 0.037006405997945455 16.904689350849093 1.48 be225370 be G V
796 661428054591 2457622.6886632 3.320246280224704 0.0992309577050055 15.156855657474019 0.0324854626833814 17.220738436501804 1.74 be227835 be G V
797 661428054591 2457620.6650115 3.4146050711167835 0.1228317291801581 15.126430202081437 0.03910049517533244 16.989079979352496 2.07 be226989 be G V
798 661428054591 2457623.5258769 2.938793641311041 0.08170062137837966 15.289358675798844 0.03021818952818746 17.431792994690603 1.99 be228123 be G V
799 661428054591 2458362.6384411 0.9443544977846099 0.04376737286525543 16.521943771707424 0.050376454484921854 18.10948019645903 1.83 be439467 be G V
800 661428054591 2457185.7189195 0.9684285235027993 0.04686463087687313 16.49461247351014 0.05260049134681133 18.035243391896564 1.47 be119334 be G V
801 661428054591 2456847.6634652 1.1559575697129632 0.13962496062176308 16.30242667133364 0.13129051231792171 16.849948734576436 1.46 be019126 be G V
802 661428054591 2456811.8161805 0.949527848345317 0.03761398676007514 16.516012138218436 0.043057998023670725 18.273982975293784 2.19 be009556 be G V
